#Wave		#Intensity
2372.977051	3438.522461
2375.433838	3465.998047
2377.888184	3505.012695
2380.340088	3577.737305
2382.789551	3534.245361
2385.236816	3594.856445
2387.681885	3706.699219
2390.124268	3609.946777
2392.564453	3781.415283
2395.002441	3686.575928
2397.437988	3733.193848
2399.871338	3864.137207
2402.302246	3709.422607
2404.730957	3804.539551
2407.157471	3821.518555
2409.581543	3847.799316
2412.003418	3927.795654
2414.422852	4036.860352
2416.840332	3954.789307
2419.255371	4016.440918
2421.668213	4032.605713
2424.078613	4069.530029
2426.487061	4213.429199
2428.893311	4132.118652
2431.297119	4180.640137
2433.698975	4230.280273
2436.098389	4254.994141
2438.495850	4246.370605
2440.890869	4254.419922
2443.283936	4241.577148
2445.674805	4370.910156
2448.063477	4420.922852
2450.449951	4424.920898
2452.834229	4385.924805
2455.216309	4468.583496
2457.596436	4451.590332
2459.974365	4509.200195
2462.350098	4489.032715
2464.723877	4461.443848
2467.095459	4553.968750
2469.464844	4553.797852
2471.832031	4603.248047
2474.197510	4791.236816
2476.560547	4821.918945
2478.921631	4924.643555
2481.280762	4874.930176
2483.637695	4879.212402
2485.992432	4825.101074
2488.345215	4777.257812
2490.696045	4863.318359
2493.044678	4762.180664
2495.391357	4884.576172
2497.736084	4855.763184
2500.078613	4809.813965
2502.419189	4746.683594
2504.757812	4928.241699
2507.094482	4912.160156
2509.428955	4967.787598
2511.761475	4915.248535
2514.092041	5032.096680
2516.420654	4914.008301
2518.747070	5018.138184
2521.071777	5017.039062
2523.394287	4938.428223
2525.714844	4997.565918
2528.033447	5117.172852
2530.350342	5095.606445
2532.665039	5112.874023
2534.977783	5071.789062
2537.288574	5131.236328
2539.597656	5104.151367
2541.904541	5112.771973
2544.209473	5087.774414
2546.512695	5147.392578
2548.813965	5076.732422
2551.113037	5216.880859
2553.410400	5216.873535
2555.705811	5172.202148
2557.999512	5173.227051
2560.291016	5225.517090
2562.580811	5191.628906
2564.868652	5244.000488
2567.154541	5268.014160
2569.438721	5174.942871
2571.720947	5378.570312
2574.001221	5317.210449
2576.279785	5354.490723
2578.556396	5377.546875
2580.831055	5409.423340
2583.104004	5379.745605
2585.375000	5421.563965
2587.644043	5403.947754
2589.911377	5515.299805
2592.177002	5497.711914
2594.440674	5399.464355
2596.702393	5488.949707
2598.962402	5514.411133
2601.220459	5661.685059
2603.476807	5483.438965
2605.731445	5597.640625
2607.984131	5506.708984
2610.235107	5422.285645
2612.484131	5553.360352
2614.731445	5665.725586
2616.976807	5590.106445
2619.220703	5538.870605
2621.462402	5486.429199
2623.702637	5616.922363
2625.940918	5571.143555
2628.177490	5635.945312
2630.412109	5580.023438
2632.645264	5507.210449
2634.876465	5596.741211
2637.105713	5596.697754
2639.333496	5596.645508
2641.559326	5422.499512
2643.783691	5642.602539
2646.005859	5505.323242
2648.226562	5685.294922
2650.445557	5545.563477
2652.662598	5507.085938
2654.877930	5514.806641
2657.091797	5531.567383
2659.303711	5537.044434
2661.513916	5497.277832
2663.722168	5559.322266
2665.928955	5605.596680
2668.134033	5624.725098
2670.337158	5454.385742
2672.538818	5678.948242
2674.738525	5494.732910
2676.936768	5532.003418
2679.133057	5668.351074
2681.327881	5570.247070
2683.520752	5464.003906
2685.712158	5606.301270
2687.901611	5525.026367
2690.089600	5626.443359
2692.275879	5766.892090
2694.460205	5678.665527
2696.643066	5593.731934
2698.824219	5682.883301
2701.003662	5608.131836
2703.181396	5567.698242
2705.357422	5713.312012
2707.531738	5597.000488
2709.704590	5693.372070
2711.875488	5482.428223
2714.044922	5615.725098
2716.212646	5607.365234
2718.378662	5721.331543
2720.542969	5748.835938
2722.705566	5620.320801
2724.866699	5702.150391
2727.026123	5714.635254
2729.183838	5570.717773
2731.339844	5716.454590
2733.494141	5786.982910
2735.646973	5670.643555
2737.798096	5704.043457
2739.947510	5661.888672
2742.095215	5649.927246
2744.241455	5633.282715
2746.385986	5744.840820
2748.528809	5515.903320
2750.670166	5808.500000
2752.809814	5684.409180
2754.947754	5743.707520
2757.084229	5724.687012
2759.218994	5697.434082
2761.352051	5619.739258
2763.483398	5770.634766
2765.613281	5755.078125
2767.741455	5690.155762
2769.868164	5757.970215
2771.993164	5704.706543
2774.116455	5736.127441
2776.238281	5782.908691
2778.358398	5795.561035
2780.477051	5765.746094
2782.593994	5799.652344
2784.709229	5799.332520
2786.822998	5752.879883
2788.935059	5751.331055
2791.045654	5914.427246
2793.154541	5713.835449
2795.261963	5851.042480
2797.367676	5840.048340
2799.471680	5802.893555
2801.574219	5794.215820
2803.675293	5812.889160
2805.774658	5929.236328
2807.872314	5789.529297
2809.968506	5963.274414
2812.062988	5887.825195
2814.156006	5953.204102
2816.247314	5918.267090
2818.337158	5848.581055
2820.425537	5958.362793
2822.512207	5995.223145
2824.597168	5918.231445
2826.680664	5933.511719
2828.762695	5895.975098
2830.843018	5971.339844
2832.921875	5931.362793
2834.999023	5868.454102
2837.074707	5959.615723
2839.148682	5835.152344
2841.221191	5948.132812
2843.292236	5927.282715
2845.361572	6044.121094
2847.429443	5889.104492
2849.495605	5903.240234
2851.560303	6033.634277
2853.623291	6046.682129
2855.684814	5928.776367
2857.744873	5957.534180
2859.803223	6126.000977
2861.860107	6030.970703
2863.915527	6011.207031
2865.969238	6043.752930
2868.021484	6084.872070
2870.072266	6021.206055
2872.121338	6112.385254
2874.168945	6179.279785
2876.214844	6061.768066
2878.259277	6084.698242
2880.302246	6129.687012
2882.343750	6111.058594
2884.383545	6123.038574
2886.421875	6063.895508
2888.458496	6275.924805
2890.493896	6103.791504
2892.527588	6043.260742
2894.559570	6213.919434
2896.590088	6211.239258
2898.619141	6165.428711
2900.646729	6025.834961
2902.672852	6317.915527
2904.697266	6125.118652
2906.720215	6250.873047
2908.741455	6172.747559
2910.761475	6183.615723
2912.779785	6143.712891
2914.796387	6235.143555
2916.811768	6134.427246
2918.825439	6216.051758
2920.837646	6203.374023
2922.848389	6155.860352
2924.857422	6286.206543
2926.865234	6163.963379
2928.871338	6289.523438
2930.875977	6142.148438
2932.878906	6240.419434
2934.880615	6212.684570
2936.880615	6344.902832
2938.879150	6275.918945
2940.875977	6260.658691
2942.871582	6330.565430
2944.865479	6285.227051
2946.857910	6428.027832
2948.848877	6432.917480
2950.838379	6446.607910
2952.826172	6506.847656
2954.812500	6407.339355
2956.797363	6570.916504
2958.780762	6686.841797
2960.762695	6608.679199
2962.743164	6697.031250
2964.721924	6999.023926
2966.699219	7341.932129
2968.675049	7576.545410
2970.649414	7815.312012
2972.622314	8310.417969
2974.593506	8670.580078
2976.563477	8576.932617
2978.531738	8508.540039
2980.498535	7865.506836
2982.463867	7535.687500
2984.427734	6946.936035
2986.389893	6809.553223
2988.350830	6558.484863
2990.310059	6476.731934
2992.267822	6351.435547
2994.224121	6353.735352
2996.178955	6347.083984
2998.132324	6263.628418
3000.084229	6399.065430
3002.034668	6501.380371
3003.983398	6385.773438
3005.930908	6466.405273
3007.876709	6828.521484
3009.821045	6824.751465
3011.763916	6909.757324
3013.705566	6827.487305
3015.645264	6727.046387
3017.583740	6356.902832
3019.520752	6286.917969
3021.456299	6309.823242
3023.390137	6206.080566
3025.322754	6247.065430
3027.253662	6046.010742
3029.183350	6178.921387
3031.111328	6152.546875
3033.038086	6213.070801
3034.963135	6234.726074
3036.886719	6171.936523
3038.808838	6111.648438
3040.729492	6213.969238
3042.648682	6127.563477
3044.566406	6213.101074
3046.482666	6289.635742
3048.397461	6072.517090
3050.310791	6278.413086
3052.222656	6229.632812
3054.133057	6091.785645
3056.041748	6152.792480
3057.949219	6265.006836
3059.855225	6116.366699
3061.759766	6086.950195
3063.662598	6145.503418
3065.564209	6175.220215
3067.464355	6236.558105
3069.363037	6133.394531
3071.260254	6202.695801
3073.155762	6262.869629
3075.050049	6236.026855
3076.942871	6221.027832
3078.834229	6256.231934
3080.724121	6180.367676
3082.612305	6261.924805
3084.499268	6110.423340
3086.384766	6258.342285
3088.268799	6312.274414
3090.151367	6198.962402
3092.032471	6159.896484
3093.912109	6337.560547
3095.790527	6297.204102
3097.667236	6396.650391
3099.542480	6217.627441
3101.416260	6282.472656
3103.288818	6308.694824
3105.159668	6253.445801
3107.029297	6338.518555
3108.897461	6161.417480
3110.763916	6250.562500
3112.629150	6229.933594
3114.492920	6321.945801
3116.355225	6301.333496
3118.216064	6323.677246
3120.075439	6355.463379
3121.933594	6404.788086
3123.790039	6382.816406
3125.645264	6378.326172
3127.498779	6464.187012
3129.351074	6438.150391
3131.201904	6521.481934
3133.051270	6445.425781
3134.899170	6568.118164
3136.745605	6464.894531
3138.590820	6532.231445
3140.434326	6565.769531
3142.276611	6458.221680
3144.117432	6635.705566
3145.956787	6590.559082
3147.794678	6648.714844
3149.631348	6633.448242
3151.466309	6525.516113
3153.300049	6536.026855
3155.132324	6617.500488
3156.963135	6585.760254
3158.792725	6622.294922
3160.620605	6591.868652
3162.447266	6583.290039
3164.272461	6567.845703
3166.096191	6620.912109
3167.918457	6527.269043
3169.739502	6552.919922
3171.559082	6595.094238
3173.377197	6465.449219
3175.193848	6624.581543
3177.009277	6592.528809
3178.822998	6497.022949
3180.635498	6679.985352
3182.446777	6507.089355
3184.256348	6543.900879
3186.064697	6510.256348
3187.871582	6537.433105
3189.677002	6599.263672
3191.481201	6561.413574
3193.283936	6669.113281
3195.085205	6368.940918
3196.885254	6629.433594
3198.683594	6634.560547
3200.480957	6531.185547
3202.276611	6654.568848
3204.071045	6482.770508
3205.864014	6673.225098
3207.655518	6536.050781
3209.445801	6563.443359
3211.234619	6604.848633
3213.021973	6612.745605
3214.808105	6486.276855
3216.592773	6714.009277
3218.376221	6576.198242
3220.158203	6708.939453
3221.938721	6562.477051
3223.718018	6563.320801
3225.495850	6537.442383
3227.272217	6662.098633
3229.047363	6558.785156
3230.821045	6627.260742
3232.593506	6787.521484
3234.364502	6640.288574
3236.134033	6747.111328
3237.902344	6660.402344
3239.669189	6659.862305
3241.434814	6659.315430
3243.198975	6929.420410
3244.961914	6621.330078
3246.723389	6670.407715
3248.483643	6642.856934
3250.242432	6711.914551
3252.000000	6776.804199
3253.756104	6656.719727
3255.510742	6580.610352
3257.264160	6756.740234
3259.016357	6731.945312
3260.767090	6692.826172
3262.516602	6856.565918
3264.264648	6647.283203
3266.011230	6755.407227
3267.756836	6790.641113
3269.500732	6845.989746
3271.243652	6716.364746
3272.985107	6702.818848
3274.725098	6801.307617
3276.463867	6838.114746
3278.201416	6810.221191
3279.937500	6883.076172
3281.672363	6967.563477
3283.405762	6884.880859
3285.137939	6891.547363
3286.868896	6745.115723
3288.598389	7001.733398
3290.326660	6927.475098
3292.053711	6785.058105
3293.779297	6884.355469
3295.503662	6953.349121
3297.226807	7034.046875
3298.948486	6824.456055
3300.668945	6848.491699
3302.388184	6843.471191
3304.105957	6976.688965
3305.822510	6970.285156
3307.537842	6958.034180
3309.251953	6923.877441
3310.964600	6891.121582
3312.676025	6981.012207
3314.386230	6832.746094
3316.094971	6951.970703
3317.802490	6875.182617
3319.508789	6872.993652
3321.213867	6964.631836
3322.917725	6884.720703
3324.620117	6935.371582
3326.321533	6942.003418
3328.021484	6932.459961
3329.720215	6981.761719
3331.417480	6897.103027
3333.113770	6903.691406
3334.808838	6866.030762
3336.502441	6989.197266
3338.194824	6722.565918
3339.885986	7057.180176
3341.575928	6932.204102
3343.264648	6963.959961
3344.952148	6976.493164
3346.638428	6900.078613
3348.323242	6985.266113
3350.007080	6761.732910
3351.689453	6913.789062
3353.370850	6917.362305
3355.050781	7042.950684
3356.729736	6818.765625
3358.407227	7068.135254
3360.083740	7013.630859
3361.758789	6859.046387
3363.432861	6950.651367
3365.105469	6924.308594
3366.777100	6847.065918
3368.447266	6907.399902
3370.116455	6927.370117
3371.784424	6930.871582
3373.450928	7106.863770
3375.116455	7114.981445
3376.780762	6996.920898
3378.443848	6943.317871
3380.105957	6942.277344
3381.766602	7036.062500
3383.426025	7018.494629
3385.084473	6997.875488
3386.741699	7054.153809
3388.397705	7059.172852
3390.052490	6898.006836
3391.706055	7099.434082
3393.358643	7024.279297
3395.010010	7103.429688
3396.660156	6987.243164
3398.309082	6996.715820
3399.957031	6978.881836
3401.603516	6970.120117
3403.249023	6978.046875
3404.893555	7096.958008
3406.536621	7109.525391
3408.178711	7000.300781
3409.819824	7113.346680
3411.459473	7006.997559
3413.098145	7136.963379
3414.735596	7050.305664
3416.372070	7056.708496
3418.007324	7092.155273
3419.641357	7022.078125
3421.274414	7189.184082
3422.906250	7036.325684
3424.537109	7097.867188
3426.166748	7024.482422
3427.795410	7040.021484
3429.422852	7063.249023
3431.049072	7164.893066
3432.674316	7125.143555
3434.298340	7166.909180
3435.921387	7131.701172
3437.543457	7097.974121
3439.164307	7095.036621
3440.783936	7272.663086
3442.402832	7160.154297
3444.020264	7079.936523
3445.636719	7092.390137
3447.252197	7200.795410
3448.866699	7152.923340
3450.479980	7177.805664
3452.092285	7081.757324
3453.703369	7126.769531
3455.313477	7249.460449
3456.922607	7170.317871
3458.530518	7137.698242
3460.137451	7125.246582
3461.743408	7209.282227
3463.348389	7034.825195
3464.952148	7039.385742
3466.554932	6987.785645
3468.156738	7082.817871
3469.757568	7081.127441
3471.357178	7052.852539
3472.955811	7115.226562
3474.553467	7038.399902
3476.150146	7154.051270
3477.745850	7167.994141
3479.340332	7037.705078
3480.934082	7075.093262
3482.526611	7134.489746
3484.118164	7192.375000
3485.708984	7020.847168
3487.298584	6897.843262
3488.887207	7119.305664
3490.474854	7152.069336
3492.061523	6929.606934
3493.647217	7071.048340
3495.231934	6949.194336
3496.815674	7125.518555
3498.398438	7020.891602
3499.980225	7025.172852
3501.561035	6915.581055
3503.140869	7084.340820
