#Wave		#Intensity
2372.977051	3692.926270
2375.433838	3693.943848
2377.888184	3652.709961
2380.340088	3667.461182
2382.789551	3778.162354
2385.236816	3734.809814
2387.681885	3851.899414
2390.124268	3776.780273
2392.564453	3895.134277
2395.002441	3856.804443
2397.437988	3937.457275
2399.871338	4030.579834
2402.302246	3989.146240
2404.730957	4059.822510
2407.157471	4146.074707
2409.581543	4112.844727
2412.003418	4195.154297
2414.422852	4281.737793
2416.840332	4295.041992
2419.255371	4329.061035
2421.668213	4459.489746
2424.078613	4407.620605
2426.487061	4492.664062
2428.893311	4484.340820
2431.297119	4565.425781
2433.698975	4533.186523
2436.098389	4533.173340
2438.495850	4540.446289
2440.890869	4655.228516
2443.283936	4642.750488
2445.674805	4678.337891
2448.063477	4741.188477
2450.449951	4772.712891
2452.834229	4753.952637
2455.216309	4804.409180
2457.596436	4934.773926
2459.974365	4911.863770
2462.350098	4894.161133
2464.723877	4882.732422
2467.095459	5009.365723
2469.464844	5102.448242
2471.832031	5002.428711
2474.197510	5184.429199
2476.560547	5052.541504
2478.921631	5078.174316
2481.280762	5224.653320
2483.637695	5237.728516
2485.992432	5250.813965
2488.345215	5334.037598
2490.696045	5340.823242
2493.044678	5263.518555
2495.391357	5430.029297
2497.736084	5447.539551
2500.078613	5490.679688
2502.419189	5550.971191
2504.757812	5617.768066
2507.094482	5580.881348
2509.428955	5732.392090
2511.761475	5689.083984
2514.092041	5790.504395
2516.420654	5942.546387
2518.747070	5917.534668
2521.071777	5899.995117
2523.394287	5953.453613
2525.714844	5952.047852
2528.033447	6000.224609
2530.350342	6050.627930
2532.665039	6150.785156
2534.977783	6066.257324
2537.288574	6140.606445
2539.597656	6139.274414
2541.904541	6283.139648
2544.209473	6190.794434
2546.512695	6066.802246
2548.813965	6049.057617
2551.113037	6155.223633
2553.410400	6196.261230
2555.705811	6143.691895
2557.999512	6252.345215
2560.291016	6248.801758
2562.580811	6101.119629
2564.868652	6271.164551
2567.154541	6376.955078
2569.438721	6281.513672
2571.720947	6339.264160
2574.001221	6410.253418
2576.279785	6622.890625
2578.556396	6503.130859
2580.831055	6461.194336
2583.104004	6668.860840
2585.375000	6679.807129
2587.644043	6569.569824
2589.911377	6616.815918
2592.177002	6731.441895
2594.440674	6774.455566
2596.702393	6791.000000
2598.962402	7027.693848
2601.220459	7048.875488
2603.476807	6947.092285
2605.731445	7143.423340
2607.984131	7095.908203
2610.235107	7037.198242
2612.484131	7100.653809
2614.731445	7250.971680
2616.976807	7106.482910
2619.220703	7104.373535
2621.462402	7073.256348
2623.702637	7062.166504
2625.940918	7057.749512
2628.177490	7025.370117
2630.412109	7053.337402
2632.645264	6931.314941
2634.876465	7005.170410
2637.105713	6951.297852
2639.333496	6973.642578
2641.559326	6814.064941
2643.783691	7036.392578
2646.005859	6735.977539
2648.226562	6838.115234
2650.445557	6753.374023
2652.662598	6864.688477
2654.877930	6785.458008
2657.091797	6826.934570
2659.303711	6792.740723
2661.513916	6810.516113
2663.722168	6893.967285
2665.928955	6748.694336
2668.134033	7004.545898
2670.337158	6834.150879
2672.538818	7033.674316
2674.738525	6866.427246
2676.936768	6875.197754
2679.133057	7013.730469
2681.327881	6989.578125
2683.520752	6795.520020
2685.712158	6920.599121
2687.901611	6921.411133
2690.089600	7028.483398
2692.275879	7051.091797
2694.460205	6962.716797
2696.643066	7021.942871
2698.824219	7148.878906
2701.003662	7148.676270
2703.181396	7134.689453
2705.357422	7173.520996
2707.531738	7123.873535
2709.704590	7183.452148
2711.875488	7174.023926
2714.044922	7280.966797
2716.212646	7305.029297
2718.378662	7302.574707
2720.542969	7208.857422
2722.705566	7279.136230
2724.866699	7438.593262
2727.026123	7216.231934
2729.183838	7387.457520
2731.339844	7419.795898
2733.494141	7550.811523
2735.646973	7456.728027
2737.798096	7475.225586
2739.947510	7466.993652
2742.095215	7440.118652
2744.241455	7508.714355
2746.385986	7629.866699
2748.528809	7423.369629
2750.670166	7592.497559
2752.809814	7458.085449
2754.947754	7521.076172
2757.084229	7398.092773
2759.218994	7472.832031
2761.352051	7417.586914
2763.483398	7492.442383
2765.613281	7549.798340
2767.741455	7501.514648
2769.868164	7550.723145
2771.993164	7635.294922
2774.116455	7576.350586
2776.238281	7741.179688
2778.358398	7688.109375
2780.477051	7702.215332
2782.593994	7796.641602
2784.709229	7782.474609
2786.822998	7788.387207
2788.935059	7741.038574
2791.045654	8200.596680
2793.154541	7867.785645
2795.261963	7991.205078
2797.367676	8069.690430
2799.471680	8029.475098
2801.574219	8021.296875
2803.675293	8028.569824
2805.774658	8134.688477
2807.872314	8063.391113
2809.968506	8180.419922
2812.062988	8216.458008
2814.156006	8287.184570
2816.247314	8101.008789
2818.337158	8298.548828
2820.425537	8414.974609
2822.512207	8471.666992
2824.597168	8445.709961
2826.680664	8371.710938
2828.762695	8480.117188
2830.843018	8563.447266
2832.921875	8566.321289
2834.999023	8450.043945
2837.074707	8541.955078
2839.148682	8464.044922
2841.221191	8516.288086
2843.292236	8367.005859
2845.361572	8490.522461
2847.429443	8397.807617
2849.495605	8566.291992
2851.560303	8595.780273
2853.623291	8567.142578
2855.684814	8464.483398
2857.744873	8623.800781
2859.803223	8733.559570
2861.860107	8762.044922
2863.915527	8896.391602
2865.969238	8990.766602
2868.021484	8980.515625
2870.072266	9173.835938
2872.121338	9212.499023
2874.168945	9302.496094
2876.214844	9541.694336
2878.259277	9860.733398
2880.302246	9948.962891
2882.343750	9971.190430
2884.383545	10188.314453
2886.421875	9900.437500
2888.458496	9945.984375
2890.493896	9782.772461
2892.527588	9736.091797
2894.559570	9926.770508
2896.590088	9789.011719
2898.619141	9802.587891
2900.646729	9763.159180
2902.672852	10148.151367
2904.697266	10008.888672
2906.720215	10025.125000
2908.741455	10048.802734
2910.761475	10006.912109
2912.779785	9979.817383
2914.796387	10102.667969
2916.811768	10053.265625
2918.825439	9957.849609
2920.837646	9828.739258
2922.848389	9754.135742
2924.857422	9954.404297
2926.865234	9932.075195
2928.871338	10248.670898
2930.875977	10191.601562
2932.878906	10315.413086
2934.880615	10351.976562
2936.880615	10592.337891
2938.879150	10554.101562
2940.875977	10728.624023
2942.871582	10853.292969
2944.865479	11181.259766
2946.857910	11454.512695
2948.848877	11497.128906
2950.838379	12067.597656
2952.826172	12233.980469
2954.812500	12706.442383
2956.797363	13373.583984
2958.780762	14010.224609
2960.762695	15272.242188
2962.743164	16604.345703
2964.721924	18604.263672
2966.699219	20785.494141
2968.675049	24098.677734
2970.649414	27395.378906
2972.622314	31623.435547
2974.593506	34095.152344
2976.563477	34439.718750
2978.531738	32353.789062
2980.498535	28045.335938
2982.463867	23085.357422
2984.427734	18838.328125
2986.389893	15703.377930
2988.350830	13643.536133
2990.310059	12416.288086
2992.267822	11457.867188
2994.224121	11034.695312
2996.178955	10803.982422
2998.132324	10849.362305
3000.084229	10995.992188
3002.034668	11895.270508
3003.983398	12993.470703
3005.930908	15260.305664
3007.876709	18654.775391
3009.821045	21605.712891
3011.763916	22393.017578
3013.705566	19971.238281
3015.645264	16449.046875
3017.583740	12884.044922
3019.520752	10801.727539
3021.456299	9630.714844
3023.390137	8844.408203
3025.322754	8531.662109
3027.253662	8533.032227
3029.183350	8126.272461
3031.111328	8206.420898
3033.038086	8073.877441
3034.963135	7972.293945
3036.886719	8092.787598
3038.808838	8027.473145
3040.729492	8088.312500
3042.648682	8016.374512
3044.566406	8122.919434
3046.482666	8086.115234
3048.397461	8044.028320
3050.310791	8058.059082
3052.222656	7963.573242
3054.133057	7897.728516
3056.041748	7880.236816
3057.949219	7801.113281
3059.855225	7926.486328
3061.759766	7748.817383
3063.662598	7790.259766
3065.564209	7809.412109
3067.464355	7886.482910
3069.363037	7828.044434
3071.260254	7849.895508
3073.155762	7928.484375
3075.050049	7871.251953
3076.942871	7795.436523
3078.834229	7883.407227
3080.724121	7856.422363
3082.612305	7887.642578
3084.499268	7679.101074
3086.384766	7878.616699
3088.268799	7769.259277
3090.151367	7743.391113
3092.032471	7771.968262
3093.912109	7768.665527
3095.790527	7748.049805
3097.667236	7892.576660
3099.542480	7592.064453
3101.416260	7971.495605
3103.288818	7964.309570
3105.159668	7876.936523
3107.029297	7868.321289
3108.897461	7780.729980
3110.763916	8042.559570
3112.629150	8142.608887
3114.492920	8143.545898
3116.355225	8171.328613
3118.216064	8273.041016
3120.075439	8396.417969
3121.933594	8276.439453
3123.790039	8369.030273
3125.645264	8500.840820
3127.498779	8697.587891
3129.351074	8890.586914
3131.201904	8997.429688
3133.051270	8921.940430
3134.899170	9258.949219
3136.745605	9266.123047
3138.590820	9385.763672
3140.434326	9657.457031
3142.276611	9591.660156
3144.117432	9743.051758
3145.956787	9879.722656
3147.794678	9590.852539
3149.631348	9743.940430
3151.466309	9638.418945
3153.300049	9617.257812
3155.132324	9448.699219
3156.963135	9447.828125
3158.792725	9404.587891
3160.620605	9145.192383
3162.447266	9272.721680
3164.272461	8851.181641
3166.096191	8932.063477
3167.918457	8760.643555
3169.739502	8735.853516
3171.559082	8577.744141
3173.377197	8511.511719
3175.193848	8377.742188
3177.009277	8333.276367
3178.822998	8246.009766
3180.635498	8244.120117
3182.446777	8148.355957
3184.256348	8064.870605
3186.064697	7912.125488
3187.871582	8001.265137
3189.677002	8075.305664
3191.481201	7855.681641
3193.283936	7944.967773
3195.085205	7644.395020
3196.885254	7923.930176
3198.683594	7779.936035
3200.480957	7670.491211
3202.276611	7960.423828
3204.071045	7576.468262
3205.864014	7739.881836
3207.655518	7616.089844
3209.445801	7648.505859
3211.234619	7630.654785
3213.021973	7735.849609
3214.808105	7555.659180
3216.592773	7582.501953
3218.376221	7609.380371
3220.158203	7627.876465
3221.938721	7536.879883
3223.718018	7518.803223
3225.495850	7499.286133
3227.272217	7496.620117
3229.047363	7422.116699
3230.821045	7451.792480
3232.593506	7561.908203
3234.364502	7371.510742
3236.134033	7401.196777
3237.902344	7288.128906
3239.669189	7462.102051
3241.434814	7262.519531
3243.198975	7466.485840
3244.961914	7326.148926
3246.723389	7236.682617
3248.483643	7377.165039
3250.242432	7424.042480
3252.000000	7348.650391
3253.756104	7219.039062
3255.510742	7270.156738
3257.264160	7322.771973
3259.016357	7316.959473
3260.767090	7234.021484
3262.516602	7296.712402
3264.264648	7152.122070
3266.011230	7286.393555
3267.756836	7187.394531
3269.500732	7300.382324
3271.243652	7135.240723
3272.985107	7111.964844
3274.725098	7170.538086
3276.463867	7151.552246
3278.201416	7237.568848
3279.937500	7155.231445
3281.672363	7097.259766
3283.405762	7023.328613
3285.137939	7058.965332
3286.868896	7055.650879
3288.598389	7092.796387
3290.326660	7134.330078
3292.053711	6971.802734
3293.779297	7059.651367
3295.503662	7136.026855
3297.226807	7067.417969
3298.948486	7071.298340
3300.668945	7099.878906
3302.388184	6921.998047
3304.105957	6935.940430
3305.822510	6735.806641
3307.537842	7032.365723
3309.251953	6973.469238
3310.964600	6953.887207
3312.676025	6981.012207
3314.386230	6952.619141
3316.094971	6969.526367
3317.802490	6967.417480
3319.508789	6969.692871
3321.213867	7057.004883
3322.917725	6994.770508
3324.620117	6835.518555
3326.321533	6921.430176
3328.021484	6895.694824
3329.720215	6967.044434
3331.417480	6973.688477
3333.113770	6946.434082
3334.808838	6743.607422
3336.502441	6998.053711
3338.194824	6808.241211
3339.885986	7030.571777
3341.575928	6932.204102
3343.264648	7076.472656
3344.952148	7000.197754
3346.638428	6960.865723
3348.323242	7031.260742
3350.007080	6933.968262
3351.689453	6919.732422
3353.370850	7000.632324
3355.050781	6986.404785
3356.729736	6876.842285
3358.407227	6849.072266
3360.083740	6895.817383
3361.758789	6876.955078
3363.432861	6985.001465
3365.105469	6762.895996
3366.777100	6764.805176
3368.447266	6850.524414
3370.116455	6804.549805
3371.784424	6945.860352
3373.450928	6749.870605
3375.116455	6823.777344
3376.780762	6914.303711
3378.443848	6768.945801
3380.105957	6829.456055
3381.766602	6858.430176
3383.426025	6772.945312
3385.084473	6913.454590
3386.741699	6948.552734
3388.397705	6856.878418
3390.052490	6845.131348
3391.706055	6998.143066
3393.358643	6689.934082
3395.010010	6874.823730
3396.660156	6744.840820
3398.309082	6917.879395
3399.957031	6819.581055
3401.603516	6848.663086
3403.249023	6850.427734
3404.893555	6995.095215
3406.536621	6758.080566
3408.178711	6837.396973
3409.819824	6906.146973
3411.459473	6752.391602
3413.098145	6909.642578
3414.735596	6809.086914
3416.372070	6855.044434
3418.007324	6936.216797
3419.641357	6812.486816
3421.274414	6951.892090
3422.906250	6971.982910
3424.537109	6877.112793
3426.166748	6772.895996
3427.795410	6852.737793
3429.422852	6860.476562
3431.049072	7031.156738
3432.674316	6755.965332
3434.298340	6835.962891
3435.921387	6823.636719
3437.543457	6899.138672
3439.164307	6880.643066
3440.783936	6857.479492
3442.402832	6899.139160
3444.020264	7089.209473
3445.636719	6878.968750
3447.252197	6902.116211
3448.866699	7063.105469
3450.479980	6824.494141
3452.092285	6816.598633
3453.703369	6886.262207
3455.313477	6878.370117
3456.922607	6915.511230
3458.530518	6927.812012
3460.137451	6955.671875
3461.743408	6818.539551
3463.348389	6793.373047
3464.952148	6889.744141
3466.554932	6753.819336
3468.156738	6834.653809
3469.757568	6765.646973
3471.357178	6863.755371
3472.955811	6760.247070
3474.553467	6819.330078
3476.150146	6947.368164
3477.745850	6813.903320
3479.340332	6813.514648
3480.934082	6888.411133
3482.526611	6870.772949
3484.118164	6868.804688
3485.708984	6901.396973
3487.298584	7006.359375
3488.887207	6932.038086
3490.474854	6890.677246
3492.061523	6775.195312
3493.647217	6788.836914
3495.231934	6843.497070
3496.815674	6699.313477
3498.398438	6793.442871
3499.980225	6767.557129
3501.561035	6676.785645
3503.140869	6820.082031
