#Wave		#Intensity
2372.977051	3550.460205
2375.433838	3536.213379
2377.888184	3518.254395
2380.340088	3587.933350
2382.789551	3585.274170
2385.236816	3655.128418
2387.681885	3663.752686
2390.124268	3602.782227
2392.564453	3797.807129
2395.002441	3736.824219
2397.437988	3756.802246
2399.871338	3820.985596
2402.302246	3927.442383
2404.730957	3870.418945
2407.157471	4023.464600
2409.581543	3980.837646
2412.003418	3977.344727
2414.422852	4133.984863
2416.840332	4201.963379
2419.255371	4165.504883
2421.668213	4228.433594
2424.078613	6383.271484
2426.487061	6232.429199
2428.893311	4260.955078
2431.297119	4314.795410
2433.698975	4285.448730
2436.098389	4401.897949
2438.495850	4378.809082
2440.890869	4468.393066
2443.283936	4404.553711
2445.674805	4435.741699
2448.063477	4505.699219
2450.449951	4463.680664
2452.834229	4551.589844
2455.216309	4698.414062
2457.596436	4636.460938
2459.974365	4600.666992
2462.350098	4628.985840
2464.723877	4606.788574
2467.095459	4745.825684
2469.464844	4769.037598
2471.832031	4773.269531
2474.197510	4822.945801
2476.560547	4875.871582
2478.921631	4854.760254
2481.280762	4877.049805
2483.637695	4979.979004
2485.992432	4884.552246
2488.345215	5008.895020
2490.696045	4969.666504
2493.044678	5072.988770
2495.391357	5107.231934
2497.736084	5097.805176
2500.078613	5204.673340
2502.419189	5193.153809
2504.757812	5221.156738
2507.094482	5274.874512
2509.428955	5351.161133
2511.761475	5317.171387
2514.092041	5385.019043
2516.420654	5370.301270
2518.747070	5588.723145
2521.071777	5526.809082
2523.394287	5506.756348
2525.714844	5670.874512
2528.033447	5563.550781
2530.350342	5452.795410
2532.665039	5610.769043
2534.977783	5705.222168
2537.288574	5636.462402
2539.597656	5688.844238
2541.904541	5631.851562
2544.209473	5659.349121
2546.512695	5674.940430
2548.813965	5688.374023
2551.113037	5729.000488
2553.410400	5757.713379
2555.705811	5698.244141
2557.999512	5756.386719
2560.291016	5760.068848
2562.580811	5691.685059
2564.868652	5811.126465
2567.154541	5900.132324
2569.438721	5822.905273
2571.720947	5908.759277
2574.001221	5807.270996
2576.279785	5922.856934
2578.556396	5898.061035
2580.831055	5953.442871
2583.104004	5955.007812
2585.375000	6138.201172
2587.644043	6019.810547
2589.911377	6110.713867
2592.177002	6110.163086
2594.440674	6203.475098
2596.702393	6238.347168
2598.962402	6281.008301
2601.220459	6346.977051
2603.476807	6393.098145
2605.731445	6366.096191
2607.984131	6304.637695
2610.235107	6465.203613
2612.484131	6389.254883
2614.731445	6579.049805
2616.976807	6488.576172
2619.220703	6428.031738
2621.462402	6432.057617
2623.702637	6593.438477
2625.940918	6574.127930
2628.177490	6384.870605
2630.412109	6586.843750
2632.645264	6382.721191
2634.876465	6416.924316
2637.105713	6413.045898
2639.333496	6278.971680
2641.559326	6135.690918
2643.783691	6339.497559
2646.005859	6351.257324
2648.226562	6290.976074
2650.445557	6175.382812
2652.662598	6338.109863
2654.877930	6301.346680
2657.091797	6389.875000
2659.303711	6316.909668
2661.513916	6291.329102
2663.722168	6303.056152
2665.928955	6379.368164
2668.134033	6380.961914
2670.337158	6312.200195
2672.538818	6534.026855
2674.738525	6233.424805
2676.936768	6415.713867
2679.133057	6422.992676
2681.327881	6462.170410
2683.520752	6309.881348
2685.712158	6565.784180
2687.901611	6380.211914
2690.089600	6363.457031
2692.275879	6527.348633
2694.460205	6427.123535
2696.643066	6416.069824
2698.824219	6584.946289
2701.003662	6529.246582
2703.181396	6614.654785
2705.357422	6663.424316
2707.531738	6519.103027
2709.704590	6555.202148
2711.875488	6660.441895
2714.044922	6553.791992
2716.212646	6667.251953
2718.378662	6642.376953
2720.542969	6769.926758
2722.705566	6719.646973
2724.866699	6805.791992
2727.026123	6804.074219
2729.183838	6757.159668
2731.339844	6828.438477
2733.494141	6935.791992
2735.646973	6921.367188
2737.798096	6906.913574
2739.947510	6950.584961
2742.095215	6837.180176
2744.241455	6958.898438
2746.385986	6956.060059
2748.528809	6710.548828
2750.670166	6997.053223
2752.809814	6943.976562
2754.947754	7055.686523
2757.084229	6918.305176
2759.218994	6972.769531
2761.352051	6860.887207
2763.483398	7058.471680
2765.613281	6912.432129
2767.741455	6952.938477
2769.868164	7192.172852
2771.993164	6995.294922
2774.116455	6902.896973
2776.238281	7220.388184
2778.358398	7046.647461
2780.477051	7229.013672
2782.593994	7193.175293
2784.709229	7253.006348
2786.822998	7252.603027
2788.935059	7243.907715
2791.045654	7408.137207
2793.154541	7169.559570
2795.261963	7314.989746
2797.367676	7340.723633
2799.471680	7308.271973
2801.574219	7486.226562
2803.675293	7450.255859
2805.774658	7535.691406
2807.872314	7353.107422
2809.968506	7590.055664
2812.062988	7404.837891
2814.156006	7525.117188
2816.247314	7585.805176
2818.337158	7635.813477
2820.425537	7821.173828
2822.512207	7754.013672
2824.597168	7758.686035
2826.680664	7726.164062
2828.762695	7841.286621
2830.843018	7849.625977
2832.921875	7777.396973
2834.999023	7744.770508
2837.074707	7885.530273
2839.148682	7830.024414
2841.221191	7744.273438
2843.292236	7832.222168
2845.361572	7908.218262
2847.429443	7821.108398
2849.495605	7856.064453
2851.560303	7929.815918
2853.623291	8008.520996
2855.684814	8057.024414
2857.744873	7966.032715
2859.803223	8178.527344
2861.860107	8245.487305
2863.915527	8210.370117
2865.969238	8284.750000
2868.021484	8429.892578
2870.072266	8547.210938
2872.121338	8478.037109
2874.168945	8651.724609
2876.214844	8742.582031
2878.259277	8979.087891
2880.302246	8993.226562
2882.343750	9301.300781
2884.383545	9327.952148
2886.421875	9220.948242
2888.458496	9382.587891
2890.493896	9167.356445
2892.527588	9072.266602
2894.559570	9261.212891
2896.590088	9140.186523
2898.619141	9208.715820
2900.646729	9119.515625
2902.672852	9428.748047
2904.697266	9304.994141
2906.720215	9532.025391
2908.741455	9398.258789
2910.761475	9508.114258
2912.779785	9277.501953
2914.796387	9327.922852
2916.811768	9348.643555
2918.825439	9355.735352
2920.837646	9284.561523
2922.848389	9276.686523
2924.857422	9487.791992
2926.865234	9349.299805
2928.871338	9714.054688
2930.875977	9531.866211
2932.878906	9767.504883
2934.880615	9756.188477
2936.880615	9904.848633
2938.879150	9943.647461
2940.875977	10220.359375
2942.871582	10467.419922
2944.865479	10388.867188
2946.857910	10712.961914
2948.848877	10895.651367
2950.838379	11284.705078
2952.826172	11458.038086
2954.812500	11864.463867
2956.797363	12634.246094
2958.780762	13197.215820
2960.762695	13990.620117
2962.743164	15263.676758
2964.721924	16912.623047
2966.699219	18811.882812
2968.675049	21126.515625
2970.649414	24042.341797
2972.622314	27152.687500
2974.593506	28841.062500
2976.563477	28987.441406
2978.531738	27311.410156
2980.498535	23852.009766
2982.463867	20414.029297
2984.427734	16876.585938
2986.389893	14424.277344
2988.350830	12633.753906
2990.310059	11542.260742
2992.267822	10750.449219
2994.224121	10444.303711
2996.178955	10103.156250
2998.132324	10084.006836
3000.084229	10287.689453
3002.034668	11265.897461
3003.983398	12076.269531
3005.930908	14130.578125
3007.876709	16695.509766
3009.821045	18512.203125
3011.763916	18648.625000
3013.705566	17023.648438
3015.645264	14706.715820
3017.583740	11841.972656
3019.520752	10253.187500
3021.456299	9334.921875
3023.390137	8646.630859
3025.322754	8375.129883
3027.253662	8090.261719
3029.183350	7970.795410
3031.111328	7953.576660
3033.038086	7859.768066
3034.963135	7664.518555
3036.886719	7890.045410
3038.808838	7577.456055
3040.729492	7738.174805
3042.648682	7583.901855
3044.566406	7750.081055
3046.482666	7752.129395
3048.397461	7598.806152
3050.310791	7798.037598
3052.222656	7648.430176
3054.133057	7548.317871
3056.041748	7783.321777
3057.949219	7536.357422
3059.855225	7652.344727
3061.759766	7591.294434
3063.662598	7728.515625
3065.564209	7667.422852
3067.464355	7598.337891
3069.363037	7585.763184
3071.260254	7606.109863
3073.155762	7613.296875
3075.050049	7624.450684
3076.942871	7473.158203
3078.834229	7452.489746
3080.724121	7401.360840
3082.612305	7526.224609
3084.499268	7439.294434
3086.384766	7618.736328
3088.268799	7606.045410
3090.151367	7603.954590
3092.032471	7520.788086
3093.912109	7739.404785
3095.790527	7473.853516
3097.667236	7600.851074
3099.542480	7474.750977
3101.416260	7625.953125
3103.288818	7562.422363
3105.159668	7672.497070
3107.029297	7599.535645
3108.897461	7451.514648
3110.763916	7706.392578
3112.629150	7901.346191
3114.492920	7699.547852
3116.355225	7964.595703
3118.216064	7853.880859
3120.075439	7972.899902
3121.933594	7946.780762
3123.790039	8105.099121
3125.645264	8251.530273
3127.498779	8190.487305
3129.351074	8198.181641
3131.201904	8608.410156
3133.051270	8320.384766
3134.899170	8742.158203
3136.745605	8685.297852
3138.590820	8654.088867
3140.434326	8826.227539
3142.276611	8792.355469
3144.117432	8981.154297
3145.956787	8850.839844
3147.794678	8897.144531
3149.631348	8912.207031
3151.466309	8653.460938
3153.300049	8714.702148
3155.132324	8939.765625
3156.963135	8588.934570
3158.792725	8752.744141
3160.620605	8380.699219
3162.447266	8537.747070
3164.272461	8359.450195
3166.096191	8232.960938
3167.918457	8292.841797
3169.739502	8231.994141
3171.559082	8111.965820
3173.377197	8138.875488
3175.193848	7945.644531
3177.009277	7944.913086
3178.822998	7940.040527
3180.635498	7906.189453
3182.446777	7685.930176
3184.256348	7900.479004
3186.064697	7699.218262
3187.871582	7606.943359
3189.677002	7742.988770
3191.481201	7475.992676
3193.283936	7713.372559
3195.085205	7355.717773
3196.885254	7576.693848
3198.683594	7440.771484
3200.480957	7447.916016
3202.276611	7491.262695
3204.071045	7350.762207
3205.864014	7546.070801
3207.655518	7381.662598
3209.445801	7303.576172
3211.234619	7384.684570
3213.021973	7388.987793
3214.808105	7169.337891
3216.592773	7251.914551
3218.376221	7200.032715
3220.158203	7264.510742
3221.938721	7242.031738
3223.718018	7138.015137
3225.495850	7344.603516
3227.272217	7263.010254
3229.047363	7165.793457
3230.821045	7103.656738
3232.593506	7114.767090
3234.364502	7093.420410
3236.134033	7230.258789
3237.902344	6975.679688
3239.669189	7173.465332
3241.434814	7013.308594
3243.198975	7229.836914
3244.961914	7069.464355
3246.723389	6975.543457
3248.483643	7098.781250
3250.242432	7017.518555
3252.000000	7062.727051
3253.756104	6867.411621
3255.510742	6888.341797
3257.264160	7076.113281
3259.016357	6963.097168
3260.767090	7021.255859
3262.516602	7105.220215
3264.264648	6890.406738
3266.011230	6871.336426
3267.756836	6948.196289
3269.500732	7072.469238
3271.243652	6937.278809
3272.985107	6846.378906
3274.725098	6900.439453
3276.463867	6907.128418
3278.201416	6981.447754
3279.937500	6956.515137
3281.672363	6935.859863
3283.405762	6863.248535
3285.137939	7053.191895
3286.868896	6831.776367
3288.598389	6888.988770
3290.326660	6891.311523
3292.053711	6824.144043
3293.779297	6932.163574
3295.503662	6953.349121
3297.226807	6945.541016
3298.948486	6770.731445
3300.668945	6857.209961
3302.388184	6664.604492
3304.105957	6877.728516
3305.822510	6783.867188
3307.537842	6832.690430
3309.251953	6681.753418
3310.964600	6695.524902
3312.676025	6720.995605
3314.386230	6708.487793
3316.094971	6916.859863
3317.802490	6781.483398
3319.508789	6830.504395
3321.213867	6772.554688
3322.917725	6826.027344
3324.620117	6816.429199
3326.321533	6818.563965
3328.021484	6725.104004
3329.720215	6691.835938
3331.417480	6629.054199
3333.113770	6887.478516
3334.808838	6727.382324
3336.502441	6806.164062
3338.194824	6585.189453
3339.885986	6944.833008
3341.575928	6800.542480
3343.264648	6830.720703
3344.952148	6908.343262
3346.638428	6680.652344
3348.323242	6878.439453
3350.007080	6764.702148
3351.689453	6823.150391
3353.370850	6871.266113
3355.050781	6736.412109
3356.729736	6640.069336
3358.407227	6773.070801
3360.083740	6722.825195
3361.758789	6666.527344
3363.432861	6743.057617
3365.105469	6706.102539
3366.777100	6712.458008
3368.447266	6736.772949
3370.116455	6687.720703
3371.784424	6722.525391
3373.450928	6727.371094
3375.116455	6622.636719
3376.780762	6710.014160
3378.443848	6719.339844
3380.105957	6636.907715
3381.766602	6656.711426
3383.426025	6675.026855
3385.084473	6744.613281
3386.741699	6702.652832
3388.397705	6701.383301
3390.052490	6639.671387
3391.706055	6831.844727
3393.358643	6544.698242
3395.010010	6773.389648
3396.660156	6653.939941
3398.309082	6675.306641
3399.957031	6730.069336
3401.603516	6655.850098
3403.249023	6639.248047
3404.893555	6636.294434
3406.536621	6755.038086
3408.178711	6738.436523
3409.819824	6602.965332
3411.459473	6717.326172
3413.098145	6819.629395
3414.735596	6723.591309
3416.372070	6774.073730
3418.007324	6706.895020
3419.641357	6775.770020
3421.274414	6659.486816
3422.906250	6775.891113
3424.537109	6840.320312
3426.166748	6637.897949
3427.795410	6742.209473
3429.422852	6694.571777
3431.049072	6819.022949
3432.674316	6734.429688
3434.298340	6712.819824
3435.921387	6840.580078
3437.543457	6780.453613
3439.164307	6800.437988
3440.783936	6829.697266
3442.402832	6774.037109
3444.020264	6778.563965
3445.636719	6750.606934
3447.252197	6818.547852
3448.866699	6830.817383
3450.479980	6734.616699
3452.092285	6729.763184
3453.703369	6797.817871
3455.313477	6754.155762
3456.922607	6708.869141
3458.530518	6741.246094
3460.137451	6758.094238
3461.743408	6866.798340
3463.348389	6721.716309
3464.952148	6612.283691
3466.554932	6607.200684
3468.156738	6675.454102
3469.757568	6714.108398
3471.357178	6613.709961
3472.955811	6707.078613
3474.553467	6694.147461
3476.150146	6754.777344
3477.745850	6802.935547
3479.340332	6626.950195
3480.934082	6736.241699
3482.526611	6765.600098
3484.118164	6714.873047
3485.708984	6665.640137
3487.298584	6669.802246
3488.887207	6716.444824
3490.474854	6807.220703
3492.061523	6616.057129
3493.647217	6711.583496
3495.231934	6747.265137
3496.815674	6607.758301
3498.398438	6622.856934
3499.980225	6623.734863
3501.561035	6670.459961
3503.140869	6633.360840
