#Wave		#Intensity
201.912354	4598.427734
205.430939	4327.012695
208.946091	4230.969727
212.457809	4116.926758
215.966125	4113.098633
219.471024	4089.990479
222.972519	4208.191406
226.470642	4263.715820
229.965393	4437.367188
233.456787	4490.326172
236.944839	4455.213867
240.429550	4493.914062
243.910934	4494.613281
247.389023	4551.365234
250.863800	4611.087891
254.335281	4591.691895
257.803497	4670.277832
261.268433	4709.314453
264.730133	4777.297363
268.188568	4817.200684
271.643768	4923.730469
275.095734	5017.407715
278.544525	5242.450684
281.990082	5211.044922
285.432465	5342.243164
288.871643	5370.446777
292.307678	5600.955078
295.740540	5714.622559
299.170227	6021.646973
302.596802	6211.753418
306.020233	6280.236328
309.440552	6115.660645
312.857758	5702.757324
316.271881	5469.954102
319.682892	5422.141113
323.090820	5407.237305
326.495697	5278.483398
329.897491	5137.724121
333.296234	5199.713867
336.691925	5236.768555
340.084595	5177.343262
343.474243	5146.562500
346.860870	5267.781250
350.244476	5245.125000
353.625092	5467.932129
357.002716	5614.882324
360.377380	5662.067871
363.749054	5444.616699
367.117767	5398.199219
370.483551	5136.281250
373.846344	5036.700684
377.206238	5055.241211
380.563171	4906.983398
383.917206	4947.033691
387.268341	4978.188965
390.616547	5022.079590
393.961853	4856.039062
397.304291	4959.712891
400.643860	4826.246094
403.980530	4842.387695
407.314331	4848.796387
410.645294	4943.017578
413.973419	4864.618164
417.298706	4935.685059
420.621124	5016.644043
423.940735	5010.369629
427.257538	5037.991699
430.571533	5095.824219
433.882721	5140.908203
437.191101	5015.279297
440.496704	5100.432617
443.799530	5060.825195
447.099579	4921.898926
450.396851	4819.880371
453.691376	4804.187500
456.983154	4777.826172
460.272186	4663.238281
463.558472	4763.738281
466.842010	4839.270508
470.122833	5007.120605
473.400940	5121.854980
476.676361	5334.467285
479.949036	5478.669922
483.219025	5889.155762
486.486328	6285.769043
489.750946	6516.847656
493.012878	6939.131348
496.272156	7378.202637
499.528748	7679.799316
502.782684	8273.829102
506.033966	9340.166992
509.282593	11430.197266
512.528564	18908.720703
515.771912	49780.281250
519.012634	115038.406250
522.250732	156257.656250
525.486206	113637.757812
528.719116	46793.628906
531.949341	17081.453125
535.177002	10495.232422
538.402039	8201.397461
541.624512	7206.429688
544.844421	6764.217773
548.061707	6144.894531
551.276428	5860.521973
554.488647	5541.438965
557.698242	5302.843750
560.905273	5087.244629
564.109741	5013.281738
567.311707	4853.307617
570.511108	4772.773438
573.707947	4651.438965
576.902283	4650.430664
580.094055	4554.639648
583.283325	4562.945312
586.470093	4458.289551
589.654358	4611.764160
592.836121	4569.041016
596.015320	4731.481445
599.192078	4963.423828
602.366333	5272.907227
605.538086	5234.481934
608.707336	4996.415527
611.874146	4957.698242
615.038452	4967.106445
618.200317	5084.845703
621.359680	5137.083984
624.516602	5285.217773
627.671082	5077.729980
630.823059	5137.202148
633.972656	4924.499512
637.119751	4874.307129
640.264404	4807.335449
643.406677	4761.734863
646.546448	4674.653320
649.683838	4723.690918
652.818787	4575.826172
655.951294	4501.947754
659.081421	4555.740234
662.209167	4436.160156
665.334412	4499.572754
668.457336	4534.257812
671.577820	4502.495117
674.695923	4526.000000
677.811646	4474.913574
680.924927	4475.135742
684.035889	4525.980957
687.144409	4429.723633
690.250549	4538.550781
693.354370	4612.903809
696.455811	4743.791504
699.554871	4692.560059
702.651550	4528.221191
705.745850	4226.278320
708.837830	3986.936768
711.927429	3866.981689
715.014709	3858.588867
718.099670	3855.041504
721.182251	3832.020264
724.262451	3832.497070
727.340393	3796.419922
730.415955	3770.851074
733.489136	3770.457031
736.560059	3823.788818
739.628662	3705.294189
742.694885	3885.840576
745.758850	3790.867920
748.820496	3854.160400
751.879822	3810.494629
754.936829	3868.165527
757.991516	3816.252686
761.043884	3907.588135
764.093994	3932.666260
767.141785	3988.128174
770.187256	4028.073486
773.230469	3967.030518
776.271423	4012.767578
779.310059	4110.402344
782.346375	4044.332275
785.380432	4090.219971
788.412231	4179.876465
791.441772	4119.475098
794.468994	4120.091309
797.493958	4268.640137
800.516663	4189.962891
803.537109	4086.333008
806.555298	4196.250000
809.571167	4295.551758
812.584839	4224.110352
815.596252	4257.160645
818.605347	4325.150879
821.612244	4330.051270
824.616882	4189.347168
827.619324	4278.246094
830.619446	4254.780273
833.617371	4192.082031
836.613037	4146.812012
839.606506	4099.800781
842.597717	4131.279785
845.586670	4106.763672
848.573425	4124.059570
851.557922	4091.956055
854.540222	4105.907227
857.520264	4093.870361
860.498108	4190.951660
863.473755	4155.429688
866.447144	4243.447266
869.418335	4174.249023
872.387329	4270.826660
875.354065	4337.208984
878.318665	4516.688965
881.281006	4564.781250
884.241150	5116.294922
887.199097	6353.223145
890.154846	8160.374512
893.108398	9608.782227
896.059753	9151.739258
899.008911	7369.055664
901.955872	5550.627930
904.900635	4755.884766
907.843201	4377.105469
910.783630	4217.118164
913.721863	4169.203125
916.657837	4152.719238
919.591736	4133.652344
922.523376	4242.467773
925.452881	4397.525391
928.380188	4798.770996
931.305298	5276.674805
934.228271	6152.999023
937.149048	7078.554688
940.067688	8138.250488
942.984131	8744.341797
945.898438	9033.927734
948.810547	9024.330078
951.720520	8911.619141
954.628357	8810.771484
957.533997	8815.597656
960.437500	9088.207031
963.338806	8934.688477
966.237976	9099.993164
969.135010	9033.403320
972.029907	9344.100586
974.922607	9213.628906
977.813171	9220.474609
980.701599	9312.146484
983.587891	9189.140625
986.472046	8850.112305
989.354065	8193.086914
992.233948	7510.773926
995.111633	6676.281250
997.987244	5974.430176
1000.860718	5386.376953
1003.731995	5112.632812
1006.601196	4864.618652
1009.468262	4718.254395
1012.333191	4571.669922
1015.195984	4441.457031
1018.056641	4249.000488
1020.915222	4223.297852
1023.771606	4152.918457
1026.625977	4185.785645
1029.478149	4458.865723
1032.328125	4646.387207
1035.176147	4853.497559
1038.021973	4857.984863
1040.865723	4441.372559
1043.707275	3986.307129
1046.546753	3630.932861
1049.384155	3527.020996
1052.219360	3431.770264
1055.052612	3478.443359
1057.883667	3370.648193
1060.712524	3442.969727
1063.539429	3399.543701
1066.364136	3433.049561
1069.186768	3521.516602
1072.007324	3456.774658
1074.825806	3521.438232
1077.642212	3437.067627
1080.456421	3454.727783
1083.268555	3465.300537
1086.078735	3420.728760
1088.886719	3457.108154
1091.692505	3513.141357
1094.496338	3491.683350
1097.298096	3481.791504
1100.097656	3503.137451
1102.895264	3582.599854
1105.690674	3683.642334
1108.484131	3714.131104
1111.275391	3774.219482
1114.064697	3597.770752
1116.851807	3565.469971
1119.636841	3406.551758
1122.419922	3522.278076
1125.200806	3334.319824
1127.979614	3382.687744
1130.756470	3519.357910
1133.531128	3715.695557
1136.303833	4075.525635
1139.074341	4140.826172
1141.842896	4093.345947
1144.609375	3864.152344
1147.373779	3589.396729
1150.136108	3365.816162
1152.896362	3193.525635
1155.654541	3037.291260
1158.410767	2996.925781
1161.164795	2873.894531
1163.916870	2899.657959
1166.666870	2880.003662
1169.414795	2782.078369
1172.160767	2864.274658
1174.904541	2723.365479
1177.646362	2699.867676
1180.386108	2778.532471
1183.123779	2682.897461
1185.859497	2603.567627
1188.593140	2692.392578
1191.324707	2620.270264
1194.054321	2643.292725
1196.781738	2562.773926
1199.507202	2639.904053
1202.230713	2580.372559
1204.952148	2556.577637
1207.671509	2509.762695
1210.388794	2541.997803
1213.104126	2515.354736
1215.817505	2515.390625
1218.528687	2519.113770
1221.238037	2449.019775
1223.945190	2508.103271
1226.650391	2460.072998
1229.353638	2436.939941
1232.054810	2435.058350
1234.753906	2452.622803
1237.451050	2403.474854
1240.146118	2449.795166
1242.839233	2432.130859
1245.530396	2394.000977
1248.219482	2483.179199
1250.906616	2423.629150
1253.591675	2459.888916
1256.274780	2382.525879
1258.955811	2489.673340
1261.634888	2458.872070
1264.311890	2471.914551
1266.987061	2503.666016
1269.660156	2436.326904
1272.331177	2513.021729
1275.000244	2557.983643
1277.667358	2584.264160
1280.332520	2682.812012
1282.995605	2748.649170
1285.656738	2761.973877
1288.315918	2873.092285
1290.973145	2911.929199
1293.628296	3057.217529
1296.281494	3095.303955
1298.932739	3250.371826
1301.582031	3387.739502
1304.229248	3563.084473
1306.874634	3883.283936
1309.517944	4239.897949
1312.159302	4850.696777
1314.798706	5494.607910
1317.436157	6341.375488
1320.071655	7676.030273
1322.705200	9783.501953
1325.336670	11661.355469
1327.966309	12018.952148
1330.593994	10046.084961
1333.219604	7223.826172
1335.843384	4891.883789
1338.465088	3994.419434
1341.084961	3403.841797
1343.702881	3195.325195
1346.318848	3035.235596
1348.932861	2966.719238
1351.544922	2900.969971
1354.155029	2845.656738
1356.763184	2839.143799
1359.369385	2792.331055
1361.973755	2873.119629
1364.576050	2886.780029
1367.176514	2829.316895
1369.775024	2922.813477
1372.371704	2993.339355
1374.966309	3036.989258
1377.559082	3203.158203
1380.149902	3184.302246
1382.738892	3397.173096
1385.325806	3498.257568
1387.910889	3713.604980
1390.494141	3938.946045
1393.075439	4163.648926
1395.654785	4385.772461
1398.232178	4546.144531
1400.807739	4863.026855
1403.381470	5328.022949
1405.953247	5737.319336
1408.523071	6164.725586
1411.091064	6703.740234
1413.657104	6666.788086
1416.221313	6436.731934
1418.783569	5820.935547
1421.343994	4954.268066
1423.902588	4431.244141
1426.459229	3910.380127
1429.014038	3592.286621
1431.566895	3499.935303
1434.117920	3571.104248
1436.667114	3862.054443
1439.214355	4468.468262
1441.759766	5526.575684
1444.303345	5412.678711
1446.845093	4117.316406
1449.384888	3937.246582
1451.922852	4065.224365
1454.458984	4596.557617
1456.993286	5257.890137
1459.525757	5134.379883
1462.056396	4486.103516
1464.585083	3703.411621
1467.112061	3382.591309
1469.637085	3224.662109
1472.160278	3106.131104
1474.681763	3081.617920
1477.201294	3069.965088
1479.718994	3122.833984
1482.234985	3110.193848
1484.749023	3111.453613
1487.261353	3190.330811
1489.771851	3195.626953
1492.280396	3207.903320
1494.787231	3333.882812
1497.292358	3418.125244
1499.795532	3547.427246
1502.296997	3662.919922
1504.796631	3706.564209
1507.294434	3868.369629
1509.790405	3824.075928
1512.284668	3859.898926
1514.777100	3795.465820
1517.267822	3803.205811
1519.756714	3687.402832
1522.243774	3752.363281
1524.729126	3571.971436
1527.212646	3529.224609
1529.694458	3315.164307
1532.174438	3323.576172
1534.652710	3322.916748
1537.129150	3262.692139
1539.603882	3202.377686
1542.076782	3209.705811
1544.548096	3196.807617
1547.017456	3171.738525
1549.485229	3176.009277
1551.951172	3309.034180
1554.415405	3393.546387
1556.877930	3497.462891
1559.338745	3649.270752
1561.797729	3762.654541
1564.255005	4006.416504
1566.710693	4263.750977
1569.164551	4398.166504
1571.616699	4376.778320
1574.067139	4188.036621
1576.515747	3948.999268
1578.962769	3800.550049
1581.408081	3534.316162
1583.851685	3464.137207
1586.293701	3389.760742
1588.733887	3395.187012
1591.172363	3345.254639
1593.609253	3391.684570
1596.044434	3313.952148
1598.477905	3318.294189
1600.909668	3308.244873
1603.339844	3210.733154
1605.768311	3315.885742
1608.195068	3384.092041
1610.620239	3326.620361
1613.043701	3288.665283
1615.465454	3331.170898
1617.885620	3332.410400
1620.304199	3442.183594
1622.721069	3501.416016
1625.136353	3404.424072
1627.549927	3466.808105
1629.961914	3447.387695
1632.372192	3592.850098
1634.780884	3548.568115
1637.187988	3501.104980
1639.593506	3571.012695
1641.997437	3441.330078
1644.399658	3461.327148
1646.800293	3411.572754
1649.199341	3408.639648
1651.596802	3506.845947
1653.992676	3405.875244
1656.386963	3506.287354
1658.779663	3511.745361
1661.170776	3532.887939
1663.560303	3731.911865
1665.948242	3753.215332
1668.334595	3958.919922
1670.719360	4068.444580
1673.102661	4073.207520
1675.484375	4000.293945
1677.864502	3819.091309
1680.243164	3549.358643
1682.620117	3430.716553
1684.995728	3423.469238
1687.369629	3309.844727
1689.742065	3317.250488
1692.113037	3262.447510
1694.482422	3325.741455
1696.850342	3289.865723
1699.216675	3190.549561
1701.581543	3249.672852
1703.944824	3229.528809
1706.306763	3344.840088
1708.666992	3275.997070
1711.025879	3282.308838
1713.383301	3275.896484
1715.739136	3221.716797
1718.093628	3322.491211
1720.446533	3288.447998
1722.797974	3227.776367
1725.147949	3215.958740
1727.496460	3199.862549
1729.843628	3249.779053
1732.189209	3264.579590
1734.533447	3242.065186
1736.876099	3192.838623
1739.217407	3242.848633
1741.557373	3265.134277
1743.895752	3310.960449
1746.232788	3287.302734
1748.568359	3220.793945
1750.902588	3217.389160
1753.235352	3297.564453
1755.566772	3214.836182
1757.896729	3254.320312
1760.225342	3284.182373
1762.552490	3264.657471
1764.878296	3269.825195
1767.202759	3236.272705
1769.525879	3278.005371
1771.847534	3191.640869
1774.167847	3248.466553
1776.486816	3249.292480
1778.804443	3243.640137
1781.120728	3199.118408
1783.435547	3265.772705
1785.749146	3317.369141
1788.061401	3219.812500
1790.372314	3230.318115
1792.681885	3174.799805
1794.990234	3278.420410
1797.297119	3194.676025
1799.602783	3181.307861
1801.907227	3174.427002
1804.210205	3232.661865
1806.511963	3204.064697
1808.812500	3159.127441
1811.111694	3237.001465
1813.409546	3157.203369
1815.706299	3152.418701
1818.001587	3196.632812
1820.295776	3180.952393
1822.588623	3172.879395
1824.880249	3151.698975
