#Wave		#Intensity
201.912354	4533.771484
205.430939	4191.304688
208.946091	4180.474121
212.457809	4009.429443
215.966125	3967.016846
219.471024	4091.417236
222.972519	4126.797852
226.470642	4217.977051
229.965393	4366.546387
233.456787	4377.190918
236.944839	4418.660645
240.429550	4402.084473
243.910934	4435.729004
247.389023	4452.172363
250.863800	4489.497070
254.335281	4526.878418
257.803497	4590.265625
261.268433	4645.100098
264.730133	4742.631836
268.188568	4736.239258
271.643768	4951.948730
275.095734	4935.570801
278.544525	5156.913086
281.990082	5207.416992
285.432465	5280.512695
288.871643	5299.208984
292.307678	5466.351562
295.740540	5651.992188
299.170227	5979.369629
302.596802	6208.834961
306.020233	6140.026367
309.440552	5925.619629
312.857758	5723.973633
316.271881	5413.570312
319.682892	5396.488770
323.090820	5284.729004
326.495697	5109.607422
329.897491	5134.049805
333.296234	5109.239258
336.691925	5099.830566
340.084595	5141.973145
343.474243	5066.170410
346.860870	5117.926758
350.244476	5276.156738
353.625092	5310.416504
357.002716	5530.503906
360.377380	5602.061523
363.749054	5468.343750
367.117767	5338.086914
370.483551	5165.249512
373.846344	4959.384766
377.206238	5056.729492
380.563171	4970.284668
383.917206	4890.385254
387.268341	4807.350586
390.616547	4969.812988
393.961853	4852.302734
397.304291	4874.445801
400.643860	4876.402832
403.980530	4848.381348
407.314331	4808.302246
410.645294	4959.529297
413.973419	4881.895020
417.298706	4848.474121
420.621124	4931.616211
423.940735	4916.232422
427.257538	4985.983887
430.571533	5022.649902
433.882721	5121.277832
437.191101	5057.596191
440.496704	5036.147949
443.799530	4973.021484
447.099579	4870.384277
450.396851	4772.872070
453.691376	4669.874023
456.983154	4783.901855
460.272186	4764.332031
463.558472	4756.130859
466.842010	4814.906738
470.122833	4962.162598
473.400940	4990.681641
476.676361	5255.087402
479.949036	5562.698730
483.219025	5798.176758
486.486328	6283.473633
489.750946	6557.434570
493.012878	6858.657715
496.272156	7185.674805
499.528748	7484.810547
502.782684	8219.279297
506.033966	9280.959961
509.282593	11221.647461
512.528564	18917.962891
515.771912	48936.246094
519.012634	112808.968750
522.250732	153535.390625
525.486206	109297.593750
528.719116	44694.101562
531.949341	16555.955078
535.177002	10508.399414
538.402039	8210.700195
541.624512	7081.525879
544.844421	6684.246094
548.061707	6187.632324
551.276428	5752.425781
554.488647	5525.094727
557.698242	5277.918457
560.905273	5100.496582
564.109741	4980.515137
567.311707	4811.926270
570.511108	4782.150391
573.707947	4601.390137
576.902283	4669.996582
580.094055	4499.811523
583.283325	4536.293457
586.470093	4375.917480
589.654358	4567.012695
592.836121	4517.182617
596.015320	4695.309082
599.192078	4904.400879
602.366333	5199.661621
605.538086	5219.505859
608.707336	5103.695801
611.874146	4935.593750
615.038452	4936.294434
618.200317	5044.520996
621.359680	5036.589355
624.516602	5156.928223
627.671082	5028.593262
630.823059	5080.095703
633.972656	4773.685059
637.119751	4920.381348
640.264404	4788.255371
643.406677	4723.545410
646.546448	4639.619141
649.683838	4671.099609
652.818787	4521.598633
655.951294	4406.178711
659.081421	4464.689453
662.209167	4408.184082
665.334412	4382.783691
668.457336	4434.190430
671.577820	4527.330566
674.695923	4465.065430
677.811646	4454.051758
680.924927	4397.244629
684.035889	4394.991211
687.144409	4406.400879
690.250549	4404.140625
693.354370	4533.968262
696.455811	4734.924805
699.554871	4724.828125
702.651550	4487.048340
705.745850	4249.708496
708.837830	4002.299072
711.927429	3934.142090
715.014709	3835.105225
718.099670	3897.992188
721.182251	3753.352295
724.262451	3786.234375
727.340393	3738.750732
730.415955	3793.611084
733.489136	3761.509033
736.560059	3786.340576
739.628662	3724.032471
742.694885	3810.830566
745.758850	3728.856201
748.820496	3762.705566
751.879822	3853.804932
754.936829	3913.961914
757.991516	3782.697998
761.043884	3967.377197
764.093994	3917.912598
767.141785	3905.281494
770.187256	3940.239014
773.230469	3999.069092
776.271423	3925.622803
779.310059	4078.315430
782.346375	4031.981934
785.380432	4016.062012
788.412231	4063.608643
791.441772	4091.417969
794.468994	4042.462891
797.493958	4106.655273
800.516663	4240.414551
803.537109	4169.930176
806.555298	4193.765137
809.571167	4138.882812
812.584839	4136.177246
815.596252	4209.840332
818.605347	4150.682617
821.612244	4231.111816
824.616882	4050.395752
827.619324	4258.262207
830.619446	4183.950684
833.617371	4141.213379
836.613037	4096.739746
839.606506	4108.152344
842.597717	4100.355957
845.586670	4141.893066
848.573425	4108.992676
851.557922	4029.969482
854.540222	4041.359619
857.520264	4143.365723
860.498108	4101.960938
863.473755	4053.770264
866.447144	4138.349121
869.418335	4218.843750
872.387329	4242.197266
875.354065	4199.854004
878.318665	4427.299316
881.281006	4502.330566
884.241150	4922.892578
887.199097	5967.820801
890.154846	8052.956543
893.108398	9866.946289
896.059753	9551.556641
899.008911	7419.917969
901.955872	5442.890137
904.900635	4592.035156
907.843201	4219.081055
910.783630	4121.042480
913.721863	4034.767578
916.657837	3954.322021
919.591736	4046.735596
922.523376	4164.866699
925.452881	4330.960938
928.380188	4642.483887
931.305298	5080.957520
934.228271	6099.115234
937.149048	6954.444336
940.067688	7995.203613
942.984131	8568.615234
945.898438	8842.629883
948.810547	8957.369141
951.720520	8854.058594
954.628357	8739.412109
957.533997	8703.746094
960.437500	8927.194336
963.338806	8816.639648
966.237976	8925.805664
969.135010	9008.377930
972.029907	9056.523438
974.922607	9054.609375
977.813171	9086.418945
980.701599	9041.238281
983.587891	9051.420898
986.472046	8823.241211
989.354065	8237.327148
992.233948	7407.470215
995.111633	6436.508789
997.987244	5954.434570
1000.860718	5342.875488
1003.731995	5093.478027
1006.601196	4732.177246
1009.468262	4706.918945
1012.333191	4398.890625
1015.195984	4375.088379
1018.056641	4212.295410
1020.915222	4122.722168
1023.771606	4138.040039
1026.625977	4065.791260
1029.478149	4344.917969
1032.328125	4730.596191
1035.176147	4914.945312
1038.021973	4872.918945
1040.865723	4495.878418
1043.707275	3897.448730
1046.546753	3556.095459
1049.384155	3445.960205
1052.219360	3397.381836
1055.052612	3361.965576
1057.883667	3347.688477
1060.712524	3462.411621
1063.539429	3416.346924
1066.364136	3394.108154
1069.186768	3415.233398
1072.007324	3441.706543
1074.825806	3430.075928
1077.642212	3339.423584
1080.456421	3405.869385
1083.268555	3420.850830
1086.078735	3401.156494
1088.886719	3352.940674
1091.692505	3371.475098
1094.496338	3391.818848
1097.298096	3434.499023
1100.097656	3443.308105
1102.895264	3539.705322
1105.690674	3587.951904
1108.484131	3723.080811
1111.275391	3706.150879
1114.064697	3567.296387
1116.851807	3397.735840
1119.636841	3294.346436
1122.419922	3290.513916
1125.200806	3230.038086
1127.979614	3327.809082
1130.756470	3465.338623
1133.531128	3610.279297
1136.303833	3996.178955
1139.074341	4203.989746
1141.842896	4245.954590
1144.609375	3938.254395
1147.373779	3585.779297
1150.136108	3295.223633
1152.896362	3061.292236
1155.654541	2995.597656
1158.410767	2879.008057
1161.164795	2878.433105
1163.916870	2880.581055
1166.666870	2849.094482
1169.414795	2730.221436
1172.160767	2763.214600
1174.904541	2728.832031
1177.646362	2706.250488
1180.386108	2711.920654
1183.123779	2666.460449
1185.859497	2645.604980
1188.593140	2622.887939
1191.324707	2595.559326
1194.054321	2578.263672
1196.781738	2617.769043
1199.507202	2539.921387
1202.230713	2517.951416
1204.952148	2514.320312
1207.671509	2496.892334
1210.388794	2475.756836
1213.104126	2496.940674
1215.817505	2428.780273
1218.528687	2476.698242
1221.238037	2398.267578
1223.945190	2404.676270
1226.650391	2416.638184
1229.353638	2392.547852
1232.054810	2429.505127
1234.753906	2367.410889
1237.451050	2382.156006
1240.146118	2376.514648
1242.839233	2398.712158
1245.530396	2377.279297
1248.219482	2414.382812
1250.906616	2366.876221
1253.591675	2373.299316
1256.274780	2294.008057
1258.955811	2435.590576
1261.634888	2421.545898
1264.311890	2364.521240
1266.987061	2407.407227
1269.660156	2420.427734
1272.331177	2498.982666
1275.000244	2379.083984
1277.667358	2490.529541
1280.332520	2526.158447
1282.995605	2614.408447
1285.656738	2670.847656
1288.315918	2733.950439
1290.973145	2821.607666
1293.628296	2840.660889
1296.281494	2971.868652
1298.932739	3057.065674
1301.582031	3316.964844
1304.229248	3383.655273
1306.874634	3683.874512
1309.517944	4047.906006
1312.159302	4637.739746
1314.798706	5294.752441
1317.436157	6123.360840
1320.071655	7527.100586
1322.705200	9830.017578
1325.336670	12128.759766
1327.966309	12751.003906
1330.593994	10608.375977
1333.219604	7308.565918
1335.843384	4733.712402
1338.465088	3705.493896
1341.084961	3267.382812
1343.702881	3087.413818
1346.318848	2931.066650
1348.932861	2826.130127
1351.544922	2726.777832
1354.155029	2756.580322
1356.763184	2737.540283
1359.369385	2687.774658
1361.973755	2804.963623
1364.576050	2705.215576
1367.176514	2768.750488
1369.775024	2770.804199
1372.371704	2889.357178
1374.966309	2902.097656
1377.559082	2991.992676
1380.149902	3055.000488
1382.738892	3291.916748
1385.325806	3369.730469
1387.910889	3566.608154
1390.494141	3867.328857
1393.075439	4031.930664
1395.654785	4288.849609
1398.232178	4491.827637
1400.807739	4742.664551
1403.381470	5221.170898
1405.953247	5668.300293
1408.523071	6091.764648
1411.091064	6629.751465
1413.657104	6681.401855
1416.221313	6623.925781
1418.783569	5847.279297
1421.343994	4965.008789
1423.902588	4212.369141
1426.459229	3878.111572
1429.014038	3551.187256
1431.566895	3402.007568
1434.117920	3470.164795
1436.667114	3751.233643
1439.214355	4412.526367
1441.759766	4716.299316
1444.303345	4570.357422
1446.845093	4002.235840
1449.384888	3786.646729
1451.922852	3864.277832
1454.458984	4621.201172
1456.993286	5395.996094
1459.525757	5261.727539
1462.056396	4495.982422
1464.585083	3574.889648
1467.112061	3161.966064
1469.637085	3111.793945
1472.160278	2991.199219
1474.681763	2975.526367
1477.201294	2995.547852
1479.718994	2876.582031
1482.234985	2989.959717
1484.749023	3042.840576
1487.261353	3117.687500
1489.771851	3081.106201
1492.280396	3110.241211
1494.787231	3198.253906
1497.292358	3314.333984
1499.795532	3401.615234
1502.296997	3634.936035
1504.796631	3682.560547
1507.294434	3729.248535
1509.790405	3811.055176
1512.284668	3809.783447
1514.777100	3734.281006
1517.267822	3801.198242
1519.756714	3727.581543
1522.243774	3639.782471
1524.729126	3520.670166
1527.212646	3318.840088
1529.694458	3196.298096
1532.174438	3203.616943
1534.652710	3071.730957
1537.129150	3047.669434
1539.603882	3039.733154
1542.076782	3143.995361
1544.548096	3063.270020
1547.017456	2995.587158
1549.485229	3092.936523
1551.951172	3175.213135
1554.415405	3226.151855
1556.877930	3331.980469
1559.338745	3396.300537
1561.797729	3598.972412
1564.255005	3914.853027
1566.710693	4139.544434
1569.164551	4478.651367
1571.616699	4564.368652
1574.067139	4305.362793
1576.515747	3945.936523
1578.962769	3716.774414
1581.408081	3423.900635
1583.851685	3335.229736
1586.293701	3179.884277
1588.733887	3288.639160
1591.172363	3220.179199
1593.609253	3193.682373
1596.044434	3233.875244
1598.477905	3133.373779
1600.909668	3066.654785
1603.339844	3144.893066
1605.768311	3091.463867
1608.195068	3198.662354
1610.620239	3242.089111
1613.043701	3163.844482
1615.465454	3203.168213
1617.885620	3232.210693
1620.304199	3250.951172
1622.721069	3318.328613
1625.136353	3368.195801
1627.549927	3383.944336
1629.961914	3418.365723
1632.372192	3434.158936
1634.780884	3451.005859
1637.187988	3339.084229
1639.593506	3422.393555
1641.997437	3342.531006
1644.399658	3329.159912
1646.800293	3262.654785
1649.199341	3313.810547
1651.596802	3311.847412
1653.992676	3267.094238
1656.386963	3377.855713
1658.779663	3380.094238
1661.170776	3441.925781
1663.560303	3685.877686
1665.948242	3678.883789
1668.334595	3927.491699
1670.719360	4012.884766
1673.102661	3965.162109
1675.484375	3915.270508
1677.864502	3730.861572
1680.243164	3497.857666
1682.620117	3442.285645
1684.995728	3292.971191
1687.369629	3177.156250
1689.742065	3165.508301
1692.113037	3109.553223
1694.482422	3088.339355
1696.850342	3113.547607
1699.216675	3114.483643
1701.581543	3137.614990
1703.944824	3094.127686
1706.306763	3170.188721
1708.666992	3139.364746
1711.025879	3142.410645
1713.383301	3091.368652
1715.739136	3111.354980
1718.093628	3092.072510
1720.446533	3104.634766
1722.797974	3145.912354
1725.147949	3109.575928
1727.496460	3083.832764
1729.843628	3058.051758
1732.189209	3073.799316
1734.533447	3103.424316
1736.876099	3136.281006
1739.217407	3113.647217
1741.557373	3117.690430
1743.895752	3129.215576
1746.232788	3133.260498
1748.568359	3100.910645
1750.902588	3117.782715
1753.235352	3115.378662
1755.566772	3153.713623
1757.896729	3052.601807
1760.225342	3129.582031
1762.552490	3144.341064
1764.878296	3067.745117
1767.202759	3144.852539
1769.525879	3099.361572
1771.847534	3153.952881
1774.167847	3151.497314
1776.486816	3174.906006
1778.804443	3059.183105
1781.120728	3204.515137
1783.435547	3057.342285
1785.749146	3133.671387
1788.061401	3074.931641
1790.372314	3176.227051
1792.681885	3094.699219
1794.990234	3130.041260
1797.297119	3112.316650
1799.602783	3155.284912
1801.907227	3151.644043
1804.210205	3030.756104
1806.511963	3151.930908
1808.812500	3009.158447
1811.111694	3086.948975
1813.409546	3071.256104
1815.706299	3117.585449
1818.001587	3111.679688
1820.295776	3043.645020
1822.588623	2986.431885
1824.880249	3010.968994
