#Wave		#Intensity
201.912354	4722.767090
205.430939	4540.166016
208.946091	4482.025879
212.457809	4361.108887
215.966125	4326.877441
219.471024	4370.312500
222.972519	4417.387207
226.470642	4543.866211
229.965393	4717.072266
233.456787	4759.559570
236.944839	4725.422363
240.429550	4697.661133
243.910934	4665.522461
247.389023	4694.403809
250.863800	4806.783691
254.335281	4815.659180
257.803497	4801.469727
261.268433	4960.400879
264.730133	4909.458496
268.188568	5031.893066
271.643768	5163.224121
275.095734	5176.736328
278.544525	5349.735352
281.990082	5422.186035
285.432465	5429.392578
288.871643	5626.320801
292.307678	5760.296387
295.740540	5927.272949
299.170227	6203.878418
302.596802	6431.360840
306.020233	6459.880371
309.440552	6302.046875
312.857758	5936.866699
316.271881	5725.511230
319.682892	5757.085449
323.090820	5607.505371
326.495697	5521.518555
329.897491	5380.243164
333.296234	5382.869629
336.691925	5425.242188
340.084595	5421.988770
343.474243	5375.937500
346.860870	5511.386230
350.244476	5599.036133
353.625092	5762.996094
357.002716	5825.829102
360.377380	5907.278320
363.749054	5670.023926
367.117767	5629.741211
370.483551	5521.780762
373.846344	5316.228516
377.206238	5300.041504
380.563171	5169.870605
383.917206	5215.367188
387.268341	5071.441406
390.616547	5183.359863
393.961853	5225.211914
397.304291	5212.522949
400.643860	5080.771484
403.980530	5160.817871
407.314331	5166.000488
410.645294	5151.666016
413.973419	5176.356445
417.298706	5188.295898
420.621124	5231.847168
423.940735	5323.659180
427.257538	5322.151367
430.571533	5393.049316
433.882721	5399.124023
437.191101	5414.265137
440.496704	5400.680664
443.799530	5373.436523
447.099579	5249.166992
450.396851	5119.369629
453.691376	5085.715820
456.983154	5129.460449
460.272186	5037.209473
463.558472	5159.321777
466.842010	5223.000977
470.122833	5326.399902
473.400940	5416.994629
476.676361	5679.463379
479.949036	5936.244141
483.219025	6179.676270
486.486328	6644.627930
489.750946	7016.140625
493.012878	7441.133789
496.272156	7836.895508
499.528748	8272.442383
502.782684	8810.871094
506.033966	9791.527344
509.282593	11534.856445
512.528564	18734.660156
515.771912	46737.132812
519.012634	106983.109375
522.250732	152992.625000
525.486206	116500.546875
528.719116	51185.246094
531.949341	18928.056641
535.177002	11100.934570
538.402039	8682.008789
541.624512	7679.669434
544.844421	7032.084473
548.061707	6618.894043
551.276428	6089.156738
554.488647	5881.552734
557.698242	5672.048828
560.905273	5438.035156
564.109741	5308.960938
567.311707	5292.884766
570.511108	5134.560547
573.707947	4964.246094
576.902283	5001.052246
580.094055	4894.573242
583.283325	4911.770020
586.470093	4759.535645
589.654358	4997.255371
592.836121	4916.334961
596.015320	5186.779297
599.192078	5383.666016
602.366333	5628.109863
605.538086	5633.314453
608.707336	5466.555176
611.874146	5319.262695
615.038452	5366.086914
618.200317	5356.838379
621.359680	5533.522461
624.516602	5537.837402
627.671082	5433.575684
630.823059	5506.808105
633.972656	5355.512207
637.119751	5308.038086
640.264404	5211.192871
643.406677	5138.854492
646.546448	5057.638672
649.683838	5091.036133
652.818787	4918.733887
655.951294	4897.793457
659.081421	4967.066406
662.209167	4876.578613
665.334412	4838.740234
668.457336	4946.535645
671.577820	4863.816406
674.695923	4898.823730
677.811646	4838.395020
680.924927	4841.305176
684.035889	4877.162109
687.144409	4859.185059
690.250549	5006.973633
693.354370	5058.326660
696.455811	5236.307617
699.554871	5162.058105
702.651550	5044.094727
705.745850	4709.420410
708.837830	4601.431152
711.927429	4374.325684
715.014709	4261.048340
718.099670	4291.843262
721.182251	4150.747070
724.262451	4228.570801
727.340393	4232.593750
730.415955	4156.145996
733.489136	4168.246582
736.560059	4236.533203
739.628662	4106.130859
742.694885	4240.506836
745.758850	4245.347656
748.820496	4217.529297
751.879822	4256.672852
754.936829	4241.897461
757.991516	4248.374023
761.043884	4316.283691
764.093994	4404.782715
767.141785	4358.067871
770.187256	4441.798340
773.230469	4398.318848
776.271423	4445.202637
779.310059	4548.099121
782.346375	4514.469238
785.380432	4517.863770
788.412231	4478.380371
791.441772	4570.868164
794.468994	4468.593750
797.493958	4628.148438
800.516663	4721.772461
803.537109	4522.528809
806.555298	4646.854004
809.571167	4675.205078
812.584839	4675.389648
815.596252	4657.307129
818.605347	4780.429688
821.612244	4689.226074
824.616882	4649.468262
827.619324	4772.850586
830.619446	4623.094238
833.617371	4654.069824
836.613037	4590.785645
839.606506	4514.875488
842.597717	4559.201172
845.586670	4579.334473
848.573425	4654.738281
851.557922	4578.635254
854.540222	4556.903320
857.520264	4664.327637
860.498108	4645.979004
863.473755	4545.263672
866.447144	4750.441406
869.418335	4675.730957
872.387329	4718.791504
875.354065	4816.686523
878.318665	5012.546387
881.281006	5099.828613
884.241150	5688.900879
887.199097	6967.669434
890.154846	8784.582031
893.108398	10263.925781
896.059753	9870.901367
899.008911	7928.537598
901.955872	6318.367188
904.900635	5300.917969
907.843201	4954.829102
910.783630	4768.063965
913.721863	4704.392578
916.657837	4642.326660
919.591736	4755.702637
922.523376	4784.821289
925.452881	4948.816406
928.380188	5343.639160
931.305298	5794.599121
934.228271	6558.409180
937.149048	7547.604980
940.067688	8659.043945
942.984131	9255.235352
945.898438	9465.421875
948.810547	9514.521484
951.720520	9415.920898
954.628357	9434.093750
957.533997	9283.652344
960.437500	9644.434570
963.338806	9462.894531
966.237976	9490.621094
969.135010	9521.834961
972.029907	9743.081055
974.922607	9657.846680
977.813171	9776.591797
980.701599	9696.438477
983.587891	9694.115234
986.472046	9432.607422
989.354065	8864.495117
992.233948	8148.825195
995.111633	7091.540039
997.987244	6656.899414
1000.860718	6016.281250
1003.731995	5641.135742
1006.601196	5370.859863
1009.468262	5308.581055
1012.333191	5069.937500
1015.195984	4961.926758
1018.056641	4810.931152
1020.915222	4816.255859
1023.771606	4810.208984
1026.625977	4851.447266
1029.478149	4939.199707
1032.328125	5208.655273
1035.176147	5366.147461
1038.021973	5327.092285
1040.865723	5062.039062
1043.707275	4589.839844
1046.546753	4259.566895
1049.384155	4172.863281
1052.219360	4007.552734
1055.052612	3984.061768
1057.883667	3955.235352
1060.712524	4009.433594
1063.539429	3994.729248
1066.364136	3972.035645
1069.186768	4071.532227
1072.007324	4058.607910
1074.825806	4002.198730
1077.642212	3985.649170
1080.456421	4065.012695
1083.268555	4113.377441
1086.078735	4061.281494
1088.886719	4015.337891
1091.692505	4060.204102
1094.496338	4107.810059
1097.298096	4031.454102
1100.097656	4179.118652
1102.895264	4283.212891
1105.690674	4277.460938
1108.484131	4413.103516
1111.275391	4402.957520
1114.064697	4242.214355
1116.851807	4133.254395
1119.636841	4025.924805
1122.419922	4136.723145
1125.200806	4013.949463
1127.979614	4063.723633
1130.756470	4184.695801
1133.531128	4304.043945
1136.303833	4466.848145
1139.074341	4650.646973
1141.842896	4490.670410
1144.609375	4351.237793
1147.373779	4159.142090
1150.136108	3921.506348
1152.896362	3822.086914
1155.654541	3695.325684
1158.410767	3670.871338
1161.164795	3515.664307
1163.916870	3567.342285
1166.666870	3537.277344
1169.414795	3463.496582
1172.160767	3472.455078
1174.904541	3461.380127
1177.646362	3333.575195
1180.386108	3399.025635
1183.123779	3369.602295
1185.859497	3267.938965
1188.593140	3371.892578
1191.324707	3270.990479
1194.054321	3333.882568
1196.781738	3274.044434
1199.507202	3248.971436
1202.230713	3238.546387
1204.952148	3248.314209
1207.671509	3183.629395
1210.388794	3151.046875
1213.104126	3228.897949
1215.817505	3183.397461
1218.528687	3158.113037
1221.238037	3116.179199
1223.945190	3155.445068
1226.650391	3094.036133
1229.353638	3103.746094
1232.054810	3158.819336
1234.753906	3142.654541
1237.451050	3062.507080
1240.146118	3134.364746
1242.839233	3006.744873
1245.530396	3169.705566
1248.219482	3113.503174
1250.906616	3103.733887
1253.591675	3202.883301
1256.274780	3073.896240
1258.955811	3134.937012
1261.634888	3179.270264
1264.311890	3113.472900
1266.987061	3219.533203
1269.660156	3269.634766
1272.331177	3252.421143
1275.000244	3285.758545
1277.667358	3254.467041
1280.332520	3367.585693
1282.995605	3371.976807
1285.656738	3355.704346
1288.315918	3520.854248
1290.973145	3583.695801
1293.628296	3802.926270
1296.281494	3893.393066
1298.932739	3848.206299
1301.582031	4137.949219
1304.229248	4358.238770
1306.874634	4651.624023
1309.517944	5053.262207
1312.159302	5603.146484
1314.798706	6320.551270
1317.436157	7039.021484
1320.071655	8506.999023
1322.705200	10178.411133
1325.336670	11687.005859
1327.966309	12138.742188
1330.593994	10534.165039
1333.219604	7934.116699
1335.843384	5801.846680
1338.465088	4813.518555
1341.084961	4290.348145
1343.702881	4019.463135
1346.318848	3897.258057
1348.932861	3786.344727
1351.544922	3731.732666
1354.155029	3628.188232
1356.763184	3563.786865
1359.369385	3622.068848
1361.973755	3584.439941
1364.576050	3626.487305
1367.176514	3599.375488
1369.775024	3759.827148
1372.371704	3753.949951
1374.966309	3688.323242
1377.559082	3932.113037
1380.149902	3966.868896
1382.738892	4203.494629
1385.325806	4443.367188
1387.910889	4406.037598
1390.494141	4702.540039
1393.075439	4862.916992
1395.654785	5090.403809
1398.232178	5317.252930
1400.807739	5651.206055
1403.381470	5990.504395
1405.953247	6392.513184
1408.523071	6764.952148
1411.091064	7213.870605
1413.657104	7150.989746
1416.221313	7094.834473
1418.783569	6562.456055
1421.343994	5725.626465
1423.902588	5215.872559
1426.459229	4749.366699
1429.014038	4499.410156
1431.566895	4345.051270
1434.117920	4334.520996
1436.667114	4573.072754
1439.214355	5267.355469
1441.759766	5600.237305
1444.303345	5793.050781
1446.845093	5212.054199
1449.384888	4868.405273
1451.922852	4888.710449
1454.458984	5614.838379
1456.993286	6248.307129
1459.525757	6234.110840
1462.056396	5545.144043
1464.585083	4741.474121
1467.112061	4248.273438
1469.637085	4205.822754
1472.160278	4078.097412
1474.681763	3915.479248
1477.201294	3881.610840
1479.718994	3898.329590
1482.234985	3953.821533
1484.749023	3976.575195
1487.261353	3981.445312
1489.771851	4079.926270
1492.280396	4163.597168
1494.787231	4190.540039
1497.292358	4262.427246
1499.795532	4448.266113
1502.296997	4412.494141
1504.796631	4552.692871
1507.294434	4749.136719
1509.790405	4729.514648
1512.284668	4725.895508
1514.777100	4700.198730
1517.267822	4684.497559
1519.756714	4548.231934
1522.243774	4558.523438
1524.729126	4436.044434
1527.212646	4359.689453
1529.694458	4248.971191
1532.174438	4232.846680
1534.652710	4162.220703
1537.129150	4106.630859
1539.603882	4061.059326
1542.076782	4105.390625
1544.548096	4067.836426
1547.017456	4205.362793
1549.485229	4212.391113
1551.951172	4159.610352
1554.415405	4286.317871
1556.877930	4504.569824
1559.338745	4574.795410
1561.797729	4733.563477
1564.255005	4972.921387
1566.710693	5201.410156
1569.164551	5406.779785
1571.616699	5442.171387
1574.067139	5292.943848
1576.515747	4956.667969
1578.962769	4732.297852
1581.408081	4542.368164
1583.851685	4528.136719
1586.293701	4319.359863
1588.733887	4379.729492
1591.172363	4353.034180
1593.609253	4328.347656
1596.044434	4346.738770
1598.477905	4174.064941
1600.909668	4331.148438
1603.339844	4221.995605
1605.768311	4233.133301
1608.195068	4252.520996
1610.620239	4305.947754
1613.043701	4257.315430
1615.465454	4315.967285
1617.885620	4378.824219
1620.304199	4291.875977
1622.721069	4495.466309
1625.136353	4419.851562
1627.549927	4474.637207
1629.961914	4513.942871
1632.372192	4535.662109
1634.780884	4523.152832
1637.187988	4519.967285
1639.593506	4552.105957
1641.997437	4499.000977
1644.399658	4519.706543
1646.800293	4448.790527
1649.199341	4441.339844
1651.596802	4430.743164
1653.992676	4554.731934
1656.386963	4536.872559
1658.779663	4636.005371
1661.170776	4612.933105
1663.560303	4722.694336
1665.948242	4820.028809
1668.334595	5025.387207
1670.719360	5161.819336
1673.102661	5142.123047
1675.484375	5005.877930
1677.864502	4760.209473
1680.243164	4621.418457
1682.620117	4616.007324
1684.995728	4400.100098
1687.369629	4388.203613
1689.742065	4238.240723
1692.113037	4288.420898
1694.482422	4246.862305
1696.850342	4235.860352
1699.216675	4208.989746
1701.581543	4269.820312
1703.944824	4126.561035
1706.306763	4289.016602
1708.666992	4323.511230
1711.025879	4342.144043
1713.383301	4296.101074
1715.739136	4261.665039
1718.093628	4267.527344
1720.446533	4329.701172
1722.797974	4314.333496
1725.147949	4297.874023
1727.496460	4205.807129
1729.843628	4243.565918
1732.189209	4180.111328
1734.533447	4255.210449
1736.876099	4237.554199
1739.217407	4298.883301
1741.557373	4228.861816
1743.895752	4217.545410
1746.232788	4364.528320
1748.568359	4261.209961
1750.902588	4248.795898
1753.235352	4283.511719
1755.566772	4311.826660
1757.896729	4266.131836
1760.225342	4187.090820
1762.552490	4297.015625
1764.878296	4204.982422
1767.202759	4259.102539
1769.525879	4206.737793
1771.847534	4228.601074
1774.167847	4251.558594
1776.486816	4176.429688
1778.804443	4246.827637
1781.120728	4266.570312
1783.435547	4220.449707
1785.749146	4212.086426
1788.061401	4251.276855
1790.372314	4163.929688
1792.681885	4137.089844
1794.990234	4209.851562
1797.297119	4147.227051
1799.602783	4238.491211
1801.907227	4156.264160
1804.210205	4200.940430
1806.511963	4252.173828
1808.812500	4136.098633
1811.111694	4135.141602
1813.409546	4162.460449
1815.706299	4117.955566
1818.001587	4168.147949
1820.295776	4078.898438
1822.588623	4072.407227
1824.880249	4111.718262
