#Wave		#Intensity
2372.977051	3512.808350
2375.433838	3403.923584
2377.888184	3475.473145
2380.340088	3473.739258
2382.789551	3474.031494
2385.236816	3577.489990
2387.681885	3638.189209
2390.124268	3584.358887
2392.564453	3701.504639
2395.002441	3666.066406
2397.437988	3694.188965
2399.871338	3766.531982
2402.302246	3836.943604
2404.730957	3851.890381
2407.157471	3947.219727
2409.581543	3964.336670
2412.003418	3950.505615
2414.422852	4102.987793
2416.840332	4016.841309
2419.255371	4078.550781
2421.668213	4144.507324
2424.078613	4200.203125
2426.487061	4230.038086
2428.893311	4174.717773
2431.297119	4273.196777
2433.698975	4309.389648
2436.098389	4228.947266
2438.495850	4439.292969
2440.890869	4286.776855
2443.283936	4381.569824
2445.674805	4419.011230
2448.063477	4457.554688
2450.449951	4487.774902
2452.834229	4540.056152
2455.216309	4590.320312
2457.596436	4571.335938
2459.974365	4622.745117
2462.350098	4631.090332
2464.723877	4636.278809
2467.095459	4791.154785
2469.464844	4739.494629
2471.832031	4773.269531
2474.197510	4843.028320
2476.560547	4876.929688
2478.921631	4885.466309
2481.280762	4896.125488
2483.637695	4912.094238
2485.992432	4896.229980
2488.345215	4990.831543
2490.696045	5031.349121
2493.044678	5072.988770
2495.391357	5129.604004
2497.736084	5116.998047
2500.078613	5148.112305
2502.419189	5134.407715
2504.757812	5293.851074
2507.094482	5354.051270
2509.428955	5314.750977
2511.761475	5369.689453
2514.092041	5379.655762
2516.420654	5428.277344
2518.747070	5651.046875
2521.071777	5658.015625
2523.394287	5570.262695
2525.714844	5637.478516
2528.033447	5658.432617
2530.350342	5695.597656
2532.665039	5732.812988
2534.977783	5714.950684
2537.288574	5689.473145
2539.597656	5771.134277
2541.904541	5697.955566
2544.209473	5805.767578
2546.512695	5722.702148
2548.813965	5748.125488
2551.113037	5814.897461
2553.410400	5762.065918
2555.705811	5783.194824
2557.999512	5839.228027
2560.291016	5822.251465
2562.580811	5722.256348
2564.868652	5855.928223
2567.154541	5884.821289
2569.438721	5841.512207
2571.720947	6023.779785
2574.001221	5889.496094
2576.279785	6004.052246
2578.556396	6026.542480
2580.831055	5978.720215
2583.104004	6162.894043
2585.375000	6232.872070
2587.644043	6139.898438
2589.911377	6226.488770
2592.177002	6307.691895
2594.440674	6308.394043
2596.702393	6421.828125
2598.962402	6328.575195
2601.220459	6532.969238
2603.476807	6531.596680
2605.731445	6610.050781
2607.984131	6512.166016
2610.235107	6590.708984
2612.484131	6659.364258
2614.731445	6722.556641
2616.976807	6653.351562
2619.220703	6630.822754
2621.462402	6609.362793
2623.702637	6602.366699
2625.940918	6547.322266
2628.177490	6760.451660
2630.412109	6480.568359
2632.645264	6606.637207
2634.876465	6674.632324
2637.105713	6504.997559
2639.333496	6619.012695
2641.559326	6327.747070
2643.783691	6592.402832
2646.005859	6387.254883
2648.226562	6483.487793
2650.445557	6316.218750
2652.662598	6502.736328
2654.877930	6457.074707
2657.091797	6455.377441
2659.303711	6451.408203
2661.513916	6433.851074
2663.722168	6454.745605
2665.928955	6436.013672
2668.134033	6606.585938
2670.337158	6378.011230
2672.538818	6610.109375
2674.738525	6420.938965
2676.936768	6545.370117
2679.133057	6627.873047
2681.327881	6513.430176
2683.520752	6507.101074
2685.712158	6669.604492
2687.901611	6510.374023
2690.089600	6533.712891
2692.275879	6658.855957
2694.460205	6676.609375
2696.643066	6589.013184
2698.824219	6729.368164
2701.003662	6679.515625
2703.181396	6579.067383
2705.357422	6848.391602
2707.531738	6696.165039
2709.704590	6810.644531
2711.875488	6728.382324
2714.044922	6837.286621
2716.212646	6798.729004
2718.378662	6777.417480
2720.542969	6864.643555
2722.705566	6956.620605
2724.866699	7012.869629
2727.026123	6954.581055
2729.183838	6958.762207
2731.339844	7061.502441
2733.494141	6999.614746
2735.646973	7017.755371
2737.798096	7055.674316
2739.947510	7088.991699
2742.095215	7121.189941
2744.241455	7026.460449
2746.385986	7107.608398
2748.528809	6921.711914
2750.670166	7174.519043
2752.809814	7022.261230
2754.947754	7148.062500
2757.084229	7050.539062
2759.218994	7095.735840
2761.352051	7080.050781
2763.483398	7108.906250
2765.613281	7107.280762
2767.741455	7049.262207
2769.868164	7212.157715
2771.993164	7178.824219
2774.116455	7017.101562
2776.238281	7331.144531
2778.358398	7113.859863
2780.477051	7266.775391
2782.593994	7298.279785
2784.709229	7267.188477
2786.822998	7454.852539
2788.935059	7466.433105
2791.045654	7475.656250
2793.154541	7433.913574
2795.261963	7543.953613
2797.367676	7478.443359
2799.471680	7566.099121
2801.574219	7633.667969
2803.675293	7690.625000
2805.774658	7635.722656
2807.872314	7493.733887
2809.968506	7698.586914
2812.062988	7554.032715
2814.156006	7802.232910
2816.247314	7781.845703
2818.337158	7937.274414
2820.425537	7931.314453
2822.512207	8069.110352
2824.597168	7891.774414
2826.680664	8066.936035
2828.762695	8088.653809
2830.843018	8076.750977
2832.921875	8144.198730
2834.999023	8044.451660
2837.074707	8085.468750
2839.148682	7866.185547
2841.221191	8051.873047
2843.292236	7997.606445
2845.361572	8230.781250
2847.429443	8003.669434
2849.495605	8064.171875
2851.560303	8271.273438
2853.623291	8307.826172
2855.684814	8192.843750
2857.744873	8408.995117
2859.803223	8366.776367
2861.860107	8525.036133
2863.915527	8541.217773
2865.969238	8551.332031
2868.021484	8756.368164
2870.072266	8760.555664
2872.121338	8723.264648
2874.168945	9007.024414
2876.214844	9049.275391
2878.259277	9331.256836
2880.302246	9431.323242
2882.343750	9442.136719
2884.383545	9620.867188
2886.421875	9554.560547
2888.458496	9497.967773
2890.493896	9443.741211
2892.527588	9409.096680
2894.559570	9417.453125
2896.590088	9407.349609
2898.619141	9452.671875
2900.646729	9285.975586
2902.672852	9566.952148
2904.697266	9395.141602
2906.720215	9658.081055
2908.741455	9603.563477
2910.761475	9703.672852
2912.779785	9597.074219
2914.796387	9644.018555
2916.811768	9548.369141
2918.825439	9600.305664
2920.837646	9495.771484
2922.848389	9613.635742
2924.857422	9721.720703
2926.865234	9524.879883
2928.871338	9795.056641
2930.875977	9894.783203
2932.878906	9784.977539
2934.880615	10072.193359
2936.880615	10208.593750
2938.879150	10298.912109
2940.875977	10384.356445
2942.871582	10578.921875
2944.865479	10917.964844
2946.857910	11058.014648
2948.848877	11355.235352
2950.838379	11680.549805
2952.826172	12064.204102
2954.812500	12466.056641
2956.797363	13141.833008
2958.780762	13947.201172
2960.762695	14729.823242
2962.743164	15957.997070
2964.721924	17676.957031
2966.699219	19478.181641
2968.675049	21831.281250
2970.649414	24168.966797
2972.622314	27213.515625
2974.593506	28734.533203
2976.563477	28959.519531
2978.531738	27788.974609
2980.498535	24757.025391
2982.463867	21359.171875
2984.427734	18029.953125
2986.389893	15472.783203
2988.350830	13507.113281
2990.310059	12314.211914
2992.267822	11344.220703
2994.224121	10938.852539
2996.178955	10628.776367
2998.132324	10539.635742
3000.084229	10760.318359
3002.034668	11369.724609
3003.983398	12538.077148
3005.930908	13737.741211
3007.876709	15979.896484
3009.821045	17727.896484
3011.763916	18061.875000
3013.705566	16838.216797
3015.645264	15463.185547
3017.583740	12810.532227
3019.520752	11098.584961
3021.456299	10078.925781
3023.390137	9220.573242
3025.322754	8873.187500
3027.253662	8426.870117
3029.183350	8410.018555
3031.111328	8211.607422
3033.038086	8191.962402
3034.963135	8094.365234
3036.886719	7974.520996
3038.808838	7853.188965
3040.729492	8031.041016
3042.648682	7847.032715
3044.566406	7984.734375
3046.482666	7869.546387
3048.397461	7745.037598
3050.310791	8058.059082
3052.222656	7937.420410
3054.133057	7777.332520
3056.041748	7912.978516
3057.949219	7774.899414
3059.855225	7841.227051
3061.759766	7684.495605
3063.662598	7825.729492
3065.564209	7792.320801
3067.464355	7753.594238
3069.363037	7781.958496
3071.260254	7654.867188
3073.155762	7809.794434
3075.050049	7662.724609
3076.942871	7683.167480
3078.834229	7693.063477
3080.724121	7616.985840
3082.612305	7794.971191
3084.499268	7591.657715
3086.384766	7689.010254
3088.268799	7798.452148
3090.151367	7651.761230
3092.032471	7647.042969
3093.912109	7758.025391
3095.790527	7547.061035
3097.667236	7739.387695
3099.542480	7614.727539
3101.416260	7712.672363
3103.288818	7629.181152
3105.159668	7676.505371
3107.029297	7868.321289
3108.897461	7645.564453
3110.763916	7757.286621
3112.629150	7811.542969
3114.492920	7932.948730
3116.355225	8000.841309
3118.216064	7817.607422
3120.075439	8011.890625
3121.933594	7993.875000
3123.790039	8031.037109
3125.645264	7979.309082
3127.498779	8263.315430
3129.351074	8245.421875
3131.201904	8520.611328
3133.051270	8427.177734
3134.899170	8514.877930
3136.745605	8612.187500
3138.590820	8513.173828
3140.434326	8828.939453
3142.276611	8553.513672
3144.117432	8956.708984
3145.956787	8742.106445
3147.794678	8717.596680
3149.631348	8893.149414
3151.466309	8739.287109
3153.300049	8773.328125
3155.132324	8781.491211
3156.963135	8608.051758
3158.792725	8509.498047
3160.620605	8528.401367
3162.447266	8514.479492
3164.272461	8370.407227
3166.096191	8305.612305
3167.918457	8340.856445
3169.739502	8192.179688
3171.559082	8217.761719
3173.377197	8067.373535
3175.193848	8116.281738
3177.009277	7794.801270
3178.822998	7810.485840
3180.635498	8013.775391
3182.446777	7817.065430
3184.256348	7890.808594
3186.064697	7661.890137
3187.871582	7709.328613
3189.677002	7820.529297
3191.481201	7599.322266
3193.283936	7817.382324
3195.085205	7554.183105
3196.885254	7544.748047
3198.683594	7647.884277
3200.480957	7488.257812
3202.276611	7452.282227
3204.071045	7531.884277
3205.864014	7461.017090
3207.655518	7337.009766
3209.445801	7374.796387
3211.234619	7402.853027
3213.021973	7426.750977
3214.808105	7272.916504
3216.592773	7312.148438
3218.376221	7097.695801
3220.158203	7348.687988
3221.938721	7393.667969
3223.718018	7081.810547
3225.495850	7108.361328
3227.272217	7174.351074
3229.047363	7088.333008
3230.821045	7138.893066
3232.593506	7172.599121
3234.364502	7049.660156
3236.134033	7185.052246
3237.902344	6927.610352
3239.669189	7075.838379
3241.434814	6905.694824
3243.198975	7129.225586
3244.961914	6987.211914
3246.723389	6874.777344
3248.483643	7026.344727
3250.242432	7162.502441
3252.000000	7038.544434
3253.756104	6935.743652
3255.510742	6915.410645
3257.264160	7063.281250
3259.016357	6893.180664
3260.767090	7062.666992
3262.516602	6963.744629
3264.264648	6857.513184
3266.011230	6955.779297
3267.756836	6760.562012
3269.500732	6926.261230
3271.243652	6790.958984
3272.985107	6740.144531
3274.725098	6817.111328
3276.463867	6865.432617
3278.201416	6850.509766
3279.937500	6816.837402
3281.672363	6881.099609
3283.405762	6743.548828
3285.137939	6727.016113
3286.868896	6833.220703
3288.598389	6834.062012
3290.326660	6771.249023
3292.053711	6644.637695
3293.779297	6900.291504
3295.503662	6776.470703
3297.226807	6729.354492
3298.948486	6673.446777
3300.668945	6807.804688
3302.388184	6628.249512
3304.105957	6812.240234
3305.822510	6597.449219
3307.537842	6624.270020
3309.251953	6699.256348
3310.964600	6702.823242
3312.676025	6678.633301
3314.386230	6775.733398
3316.094971	6637.435059
3317.802490	6645.326660
3319.508789	6682.524414
3321.213867	6650.856934
3322.917725	6647.012695
3324.620117	6474.286133
3326.321533	6684.837891
3328.021484	6683.926758
3329.720215	6643.270020
3331.417480	6723.313477
3333.113770	6731.246094
3334.808838	6618.233887
3336.502441	6689.554688
3338.194824	6506.899902
3339.885986	6751.182129
3341.575928	6736.930664
3343.264648	6667.873047
3344.952148	6697.966797
3346.638428	6609.486816
3348.323242	6602.471191
3350.007080	6565.740234
3351.689453	6665.647461
3353.370850	6561.977539
3355.050781	6577.190430
3356.729736	6459.883301
3358.407227	6694.088867
3360.083740	6569.220215
3361.758789	6563.552246
3363.432861	6617.605469
3365.105469	6664.254883
3366.777100	6570.371582
3368.447266	6518.250488
3370.116455	6594.856445
3371.784424	6529.168457
3373.450928	6461.875977
3375.116455	6489.042969
3376.780762	6558.298828
3378.443848	6511.897461
3380.105957	6591.778809
3381.766602	6498.648438
3383.426025	6485.215332
3385.084473	6556.174316
3386.741699	6566.880371
3388.397705	6394.921875
3390.052490	6544.495117
3391.706055	6645.893066
3393.358643	6408.539551
3395.010010	6473.628418
3396.660156	6478.198242
3398.309082	6558.568359
3399.957031	6526.771484
3401.603516	6472.145996
3403.249023	6490.358398
3404.893555	6526.829590
3406.536621	6627.239746
3408.178711	6577.055176
3409.819824	6584.683105
3411.459473	6535.900391
3413.098145	6540.436523
3414.735596	6541.914062
3416.372070	6599.909180
3418.007324	6508.149414
3419.641357	6526.401855
3421.274414	6624.275879
3422.906250	6587.458984
3424.537109	6651.759277
3426.166748	6553.524414
3427.795410	6450.538574
3429.422852	6450.322754
3431.049072	6559.235840
3432.674316	6571.375977
3434.298340	6618.923828
3435.921387	6515.571777
3437.543457	6654.062012
3439.164307	6612.265625
3440.783936	6587.378418
3442.402832	6531.555664
3444.020264	6579.194336
3445.636719	6534.092285
3447.252197	6547.725098
3448.866699	6531.939941
3450.479980	6658.685547
3452.092285	6591.756348
3453.703369	6582.137207
3455.313477	6640.810059
3456.922607	6550.392090
3458.530518	6553.125488
3460.137451	6703.643555
3461.743408	6583.471191
3463.348389	6469.359863
3464.952148	6448.613281
3466.554932	6522.973145
3468.156738	6497.525391
3469.757568	6523.570801
3471.357178	6594.956543
3472.955811	6594.485840
3474.553467	6631.555664
3476.150146	6527.738770
3477.745850	6506.815430
3479.340332	6573.645996
3480.934082	6607.604004
3482.526611	6520.719727
3484.118164	6548.375488
3485.708984	6566.622070
3487.298584	6487.369629
3488.887207	6480.393555
3490.474854	6539.529785
3492.061523	6513.641113
3493.647217	6583.878906
3495.231934	6491.699219
3496.815674	6408.862305
3498.398438	6521.768555
3499.980225	6522.584961
3501.561035	6423.757324
3503.140869	6487.781250
