#Wave		#Intensity
2372.977051	11143.906250
2375.433838	11079.796875
2377.888184	11230.096680
2380.340088	11348.024414
2382.789551	11466.141602
2385.236816	11525.197266
2387.681885	11620.118164
2390.124268	11748.958984
2392.564453	11841.125977
2395.002441	11758.075195
2397.437988	11983.789062
2399.871338	12044.477539
2402.302246	12158.719727
2404.730957	12226.818359
2407.157471	12218.761719
2409.581543	12381.848633
2412.003418	12471.912109
2414.422852	12540.408203
2416.840332	12618.300781
2419.255371	12719.075195
2421.668213	12701.878906
2424.078613	12831.879883
2426.487061	13065.887695
2428.893311	12864.946289
2431.297119	13015.103516
2433.698975	13045.792969
2436.098389	13038.994141
2438.495850	13228.195312
2440.890869	13435.449219
2443.283936	13358.877930
2445.674805	13449.436523
2448.063477	13730.607422
2450.449951	13679.123047
2452.834229	13398.932617
2455.216309	13767.812500
2457.596436	13824.299805
2459.974365	13775.717773
2462.350098	13919.579102
2464.723877	13779.290039
2467.095459	14084.624023
2469.464844	14160.454102
2471.832031	14092.760742
2474.197510	14372.653320
2476.560547	14338.808594
2478.921631	14378.984375
2481.280762	14341.832031
2483.637695	14530.506836
2485.992432	14483.795898
2488.345215	14732.357422
2490.696045	14519.764648
2493.044678	14470.684570
2495.391357	14661.185547
2497.736084	14754.952148
2500.078613	14876.592773
2502.419189	14590.391602
2504.757812	14919.422852
2507.094482	14784.627930
2509.428955	14961.190430
2511.761475	14853.997070
2514.092041	15015.835938
2516.420654	14984.665039
2518.747070	15112.440430
2521.071777	15118.872070
2523.394287	15065.003906
2525.714844	15187.687500
2528.033447	15208.116211
2530.350342	15142.217773
2532.665039	15296.500977
2534.977783	15254.280273
2537.288574	15284.441406
2539.597656	15312.455078
2541.904541	15379.496094
2544.209473	15419.502930
2546.512695	15240.276367
2548.813965	15299.726562
2551.113037	15502.768555
2553.410400	15432.978516
2555.705811	15481.754883
2557.999512	15488.070312
2560.291016	15364.546875
2562.580811	15472.255859
2564.868652	15442.428711
2567.154541	15638.905273
2569.438721	15392.390625
2571.720947	15582.518555
2574.001221	15539.411133
2576.279785	15675.052734
2578.556396	15559.416016
2580.831055	15557.861328
2583.104004	15686.067383
2585.375000	15626.212891
2587.644043	15575.047852
2589.911377	15490.693359
2592.177002	15552.941406
2594.440674	15593.175781
2596.702393	15829.086914
2598.962402	15712.476562
2601.220459	15698.610352
2603.476807	15643.700195
2605.731445	15817.104492
2607.984131	15714.428711
2610.235107	15606.008789
2612.484131	15678.573242
2614.731445	15819.088867
2616.976807	15771.649414
2619.220703	15721.879883
2621.462402	15603.984375
2623.702637	15566.229492
2625.940918	15771.875977
2628.177490	15600.009766
2630.412109	15879.797852
2632.645264	15619.250000
2634.876465	15874.800781
2637.105713	15659.763672
2639.333496	15775.425781
2641.559326	15465.579102
2643.783691	15846.495117
2646.005859	15698.157227
2648.226562	15787.107422
2650.445557	15549.435547
2652.662598	15731.953125
2654.877930	15624.721680
2657.091797	15623.458984
2659.303711	15537.405273
2661.513916	15557.522461
2663.722168	15577.649414
2665.928955	15393.865234
2668.134033	15789.139648
2670.337158	15233.019531
2672.538818	15712.778320
2674.738525	15303.427734
2676.936768	15659.982422
2679.133057	15630.079102
2681.327881	15577.327148
2683.520752	15271.395508
2685.712158	15745.332031
2687.901611	15473.270508
2690.089600	15436.154297
2692.275879	15696.283203
2694.460205	15378.861328
2696.643066	15449.191406
2698.824219	15590.676758
2701.003662	15428.384766
2703.181396	15334.703125
2705.357422	15660.196289
2707.531738	15305.520508
2709.704590	15372.564453
2711.875488	15315.331055
2714.044922	15467.733398
2716.212646	15388.539062
2718.378662	15670.468750
2720.542969	15572.795898
2722.705566	15458.771484
2724.866699	15493.791016
2727.026123	15425.809570
2729.183838	15467.778320
2731.339844	15444.863281
2733.494141	15524.013672
2735.646973	15229.330078
2737.798096	15503.655273
2739.947510	15631.837891
2742.095215	15516.930664
2744.241455	15375.041992
2746.385986	15646.763672
2748.528809	15313.398438
2750.670166	15513.073242
2752.809814	15270.205078
2754.947754	15540.283203
2757.084229	15376.611328
2759.218994	15397.710938
2761.352051	15170.366211
2763.483398	15319.159180
2765.613281	15571.458984
2767.741455	15369.529297
2769.868164	15374.180664
2771.993164	15234.119141
2774.116455	15344.611328
2776.238281	15475.290039
2778.358398	15266.557617
2780.477051	15483.494141
2782.593994	15339.377930
2784.709229	15562.585938
2786.822998	15434.844727
2788.935059	15303.346680
2791.045654	15410.915039
2793.154541	15277.990234
2795.261963	15455.673828
2797.367676	15530.325195
2799.471680	15439.927734
2801.574219	15462.339844
2803.675293	15468.116211
2805.774658	15531.050781
2807.872314	15373.595703
2809.968506	15593.961914
2812.062988	15260.841797
2814.156006	15627.160156
2816.247314	15457.303711
2818.337158	15498.918945
2820.425537	15536.996094
2822.512207	15452.915039
2824.597168	15548.545898
2826.680664	15536.321289
2828.762695	15635.742188
2830.843018	15622.342773
2832.921875	15702.717773
2834.999023	15336.691406
2837.074707	15703.611328
2839.148682	15602.192383
2841.221191	15401.695312
2843.292236	15630.643555
2845.361572	15758.448242
2847.429443	15544.286133
2849.495605	15639.533203
2851.560303	15773.661133
2853.623291	15794.078125
2855.684814	15655.656250
2857.744873	15885.949219
2859.803223	15906.470703
2861.860107	15849.225586
2863.915527	15793.102539
2865.969238	15816.007812
2868.021484	15902.286133
2870.072266	15952.112305
2872.121338	15865.360352
2874.168945	16022.662109
2876.214844	16158.198242
2878.259277	16212.003906
2880.302246	15985.646484
2882.343750	15923.042969
2884.383545	16243.945312
2886.421875	16104.156250
2888.458496	16026.746094
2890.493896	16223.138672
2892.527588	16046.111328
2894.559570	16105.013672
2896.590088	16115.981445
2898.619141	16226.757812
2900.646729	16017.105469
2902.672852	16383.390625
2904.697266	16367.404297
2906.720215	16242.630859
2908.741455	16314.308594
2910.761475	16506.144531
2912.779785	16482.740234
2914.796387	16916.699219
2916.811768	16582.181641
2918.825439	16557.515625
2920.837646	16746.501953
2922.848389	16613.736328
2924.857422	16712.201172
2926.865234	16780.923828
2928.871338	17069.070312
2930.875977	17068.312500
2932.878906	17217.316406
2934.880615	17281.605469
2936.880615	17369.734375
2938.879150	17452.984375
2940.875977	17528.843750
2942.871582	17677.474609
2944.865479	17781.187500
2946.857910	17666.724609
2948.848877	17828.333984
2950.838379	18124.644531
2952.826172	18357.257812
2954.812500	18385.074219
2956.797363	18690.019531
2958.780762	19176.929688
2960.762695	19383.271484
2962.743164	19570.986328
2964.721924	20150.619141
2966.699219	20335.394531
2968.675049	20488.810547
2970.649414	20489.236328
2972.622314	20618.910156
2974.593506	20477.382812
2976.563477	19871.119141
2978.531738	19650.041016
2980.498535	19043.474609
2982.463867	18677.667969
2984.427734	18098.697266
2986.389893	17739.236328
2988.350830	17607.441406
2990.310059	17082.443359
2992.267822	17188.716797
2994.224121	17226.136719
2996.178955	17291.744141
2998.132324	17059.236328
3000.084229	16978.785156
3002.034668	17555.777344
3003.983398	17419.126953
3005.930908	17723.880859
3007.876709	17693.771484
3009.821045	17483.603516
3011.763916	17556.187500
3013.705566	17406.101562
3015.645264	17280.261719
3017.583740	16738.941406
3019.520752	16624.000000
3021.456299	16816.292969
3023.390137	16257.836914
3025.322754	16509.638672
3027.253662	16172.755859
3029.183350	15931.225586
3031.111328	15979.765625
3033.038086	15892.121094
3034.963135	15869.267578
3036.886719	15533.161133
3038.808838	15645.248047
3040.729492	15551.843750
3042.648682	15411.394531
3044.566406	15531.449219
3046.482666	15549.920898
3048.397461	15200.223633
3050.310791	15624.821289
3052.222656	15336.089844
3054.133057	15143.747070
3056.041748	15444.844727
3057.949219	15142.180664
3059.855225	15239.105469
3061.759766	15190.464844
3063.662598	15265.230469
3065.564209	15276.998047
3067.464355	15165.098633
3069.363037	15272.916016
3071.260254	14911.770508
3073.155762	15246.375000
3075.050049	15186.871094
3076.942871	15026.885742
3078.834229	15246.012695
3080.724121	15187.671875
3082.612305	15303.985352
3084.499268	14901.112305
3086.384766	15318.354492
3088.268799	15241.283203
3090.151367	15052.536133
3092.032471	15145.238281
3093.912109	15300.586914
3095.790527	15023.577148
3097.667236	15168.400391
3099.542480	14722.873047
3101.416260	15395.993164
3103.288818	15152.883789
3105.159668	15096.458984
3107.029297	15074.708008
3108.897461	14730.391602
3110.763916	15178.406250
3112.629150	15202.216797
3114.492920	15030.214844
3116.355225	15084.807617
3118.216064	14975.574219
3120.075439	15151.199219
3121.933594	15009.540039
3123.790039	15029.243164
3125.645264	15132.521484
3127.498779	15187.400391
3129.351074	15061.493164
3131.201904	15117.735352
3133.051270	14994.266602
3134.899170	15128.993164
3136.745605	15211.118164
3138.590820	14922.104492
3140.434326	15071.979492
3142.276611	14968.309570
3144.117432	15206.711914
3145.956787	15006.467773
3147.794678	15188.123047
3149.631348	15120.940430
3151.466309	14864.281250
3153.300049	14997.141602
3155.132324	15235.259766
3156.963135	15118.709961
3158.792725	15018.369141
3160.620605	15168.135742
3162.447266	15255.166992
3164.272461	14882.094727
3166.096191	15106.097656
3167.918457	15072.531250
3169.739502	15140.499023
3171.559082	14979.107422
3173.377197	15273.970703
3175.193848	14998.195312
3177.009277	15144.775391
3178.822998	14872.587891
3180.635498	15296.517578
3182.446777	14995.017578
3184.256348	14897.493164
3186.064697	14803.955078
3187.871582	14855.539062
3189.677002	15004.117188
3191.481201	14805.098633
3193.283936	15217.338867
3195.085205	14490.763672
3196.885254	14818.652344
3198.683594	15053.905273
3200.480957	14763.678711
3202.276611	14981.133789
3204.071045	14790.692383
3205.864014	14818.854492
3207.655518	14633.552734
3209.445801	14710.491211
3211.234619	14836.452148
3213.021973	14916.440430
3214.808105	14621.417969
3216.592773	15107.571289
3218.376221	14529.038086
3220.158203	14781.553711
3221.938721	14882.810547
3223.718018	14659.628906
3225.495850	14699.050781
3227.272217	14905.988281
3229.047363	14768.181641
3230.821045	14604.780273
3232.593506	14490.483398
3234.364502	14519.984375
3236.134033	14782.616211
3237.902344	14475.877930
3239.669189	14737.439453
3241.434814	14328.218750
3243.198975	14804.019531
3244.961914	14509.065430
3246.723389	14402.403320
3248.483643	14637.863281
3250.242432	14805.442383
3252.000000	14697.300781
3253.756104	14485.056641
3255.510742	14470.503906
3257.264160	14719.684570
3259.016357	14536.892578
3260.767090	14475.182617
3262.516602	14491.961914
3264.264648	14375.750977
3266.011230	14297.990234
3267.756836	14648.362305
3269.500732	14705.404297
3271.243652	14241.791992
3272.985107	14489.516602
3274.725098	14582.440430
3276.463867	14433.943359
3278.201416	14496.720703
3279.937500	14605.657227
3281.672363	14371.770508
3283.405762	14560.066406
3285.137939	14490.290039
3286.868896	14586.493164
3288.598389	14600.435547
3290.326660	14421.993164
3292.053711	14356.180664
3293.779297	14620.563477
3295.503662	14744.696289
3297.226807	14613.638672
3298.948486	14254.401367
3300.668945	14488.925781
3302.388184	14425.676758
3304.105957	14618.448242
3305.822510	14498.368164
3307.537842	14383.920898
3309.251953	14511.409180
3310.964600	14442.015625
3312.676025	14340.364258
3314.386230	14592.313477
3316.094971	14440.846680
3317.802490	14406.259766
3319.508789	14269.043945
3321.213867	14278.228516
3322.917725	14434.142578
3324.620117	14252.533203
3326.321533	14367.478516
3328.021484	14322.280273
3329.720215	14472.732422
3331.417480	14177.133789
3333.113770	14495.688477
3334.808838	14220.279297
3336.502441	14365.125000
3338.194824	13959.183594
3339.885986	14328.708008
3341.575928	14547.864258
3343.264648	14357.245117
3344.952148	14373.739258
3346.638428	14126.332031
3348.323242	14556.594727
3350.007080	13955.539062
3351.689453	14298.601562
3353.370850	14213.900391
3355.050781	14166.256836
3356.729736	14093.208008
3358.407227	14180.976562
3360.083740	14331.488281
3361.758789	14058.358398
3363.432861	14185.063477
3365.105469	14229.731445
3366.777100	14120.390625
3368.447266	14168.028320
3370.116455	14236.682617
3371.784424	14068.589844
3373.450928	14213.727539
3375.116455	14198.440430
3376.780762	14387.399414
3378.443848	13951.274414
3380.105957	14223.019531
3381.766602	14145.887695
3383.426025	14061.091797
3385.084473	13929.419922
3386.741699	14097.747070
3388.397705	14048.901367
3390.052490	14069.456055
3391.706055	14238.175781
3393.358643	13953.248047
3395.010010	14025.185547
3396.660156	14227.493164
3398.309082	14120.782227
3399.957031	14142.855469
3401.603516	14010.078125
3403.249023	13986.479492
3404.893555	14207.599609
3406.536621	14012.139648
3408.178711	14041.708008
3409.819824	13925.035156
3411.459473	13904.224609
3413.098145	14167.131836
3414.735596	13966.261719
3416.372070	14088.972656
3418.007324	13814.338867
3419.641357	13863.632812
3421.274414	14160.977539
3422.906250	13835.196289
3424.537109	13974.979492
3426.166748	13909.365234
3427.795410	13957.233398
3429.422852	13825.412109
3431.049072	13970.081055
3432.674316	14087.233398
3434.298340	13973.625000
3435.921387	13929.152344
3437.543457	13955.496094
3439.164307	14099.071289
3440.783936	14096.186523
3442.402832	14048.482422
3444.020264	14026.959961
3445.636719	13895.579102
3447.252197	13872.325195
3448.866699	14090.592773
3450.479980	13855.086914
3452.092285	13845.634766
3453.703369	13935.449219
3455.313477	13865.427734
3456.922607	14050.093750
3458.530518	13773.223633
3460.137451	13900.454102
3461.743408	13963.995117
3463.348389	13720.712891
3464.952148	13731.166016
3466.554932	13626.181641
3468.156738	13716.130859
3469.757568	13615.630859
3471.357178	13496.218750
3472.955811	13658.107422
3474.553467	13831.128906
3476.150146	13796.091797
3477.745850	13881.624023
3479.340332	13777.534180
3480.934082	13613.671875
3482.526611	13592.419922
3484.118164	13682.633789
3485.708984	13710.063477
3487.298584	13492.156250
3488.887207	13805.850586
3490.474854	13786.078125
3492.061523	13372.344727
3493.647217	13571.367188
3495.231934	13515.039062
3496.815674	13273.921875
3498.398438	13386.289062
3499.980225	13200.055664
3501.561035	13222.313477
3503.140869	13337.928711
