#Wave		#Intensity
2372.977051	6745.772461
2375.433838	6654.187012
2377.888184	6826.676758
2380.340088	6847.559082
2382.789551	6777.627441
2385.236816	7008.897461
2387.681885	7068.803223
2390.124268	7104.235840
2392.564453	7074.145996
2395.002441	7111.656250
2397.437988	7169.744141
2399.871338	7304.976074
2402.302246	7348.914062
2404.730957	7405.264648
2407.157471	7450.364258
2409.581543	7362.486816
2412.003418	7551.070801
2414.422852	7605.664062
2416.840332	7673.780273
2419.255371	7787.547852
2421.668213	7748.156738
2424.078613	7838.304688
2426.487061	8011.640625
2428.893311	8034.617188
2431.297119	7993.134766
2433.698975	8007.762207
2436.098389	8009.891113
2438.495850	8167.380859
2440.890869	8244.764648
2443.283936	8258.538086
2445.674805	8334.007812
2448.063477	8243.178711
2450.449951	8410.911133
2452.834229	8291.630859
2455.216309	8474.356445
2457.596436	8723.562500
2459.974365	8590.504883
2462.350098	8736.040039
2464.723877	8663.795898
2467.095459	8870.751953
2469.464844	8821.664062
2471.832031	8733.393555
2474.197510	8946.178711
2476.560547	8977.359375
2478.921631	9134.573242
2481.280762	9024.979492
2483.637695	9088.063477
2485.992432	9047.197266
2488.345215	9093.365234
2490.696045	9229.989258
2493.044678	9269.966797
2495.391357	9287.619141
2497.736084	9244.502930
2500.078613	9444.609375
2502.419189	9271.200195
2504.757812	9617.019531
2507.094482	9377.079102
2509.428955	9613.242188
2511.761475	9491.810547
2514.092041	9578.253906
2516.420654	9540.283203
2518.747070	9765.490234
2521.071777	9665.194336
2523.394287	9644.358398
2525.714844	9898.174805
2528.033447	9681.224609
2530.350342	9936.541016
2532.665039	10060.502930
2534.977783	9949.007812
2537.288574	9911.951172
2539.597656	9994.999023
2541.904541	9973.047852
2544.209473	9934.771484
2546.512695	9850.819336
2548.813965	9983.987305
2551.113037	9989.054688
2553.410400	9940.788086
2555.705811	10029.650391
2557.999512	9985.658203
2560.291016	10111.756836
2562.580811	10083.005859
2564.868652	10186.408203
2567.154541	10216.688477
2569.438721	9956.949219
2571.720947	10233.524414
2574.001221	10223.296875
2576.279785	10337.020508
2578.556396	10308.154297
2580.831055	10183.607422
2583.104004	10396.515625
2585.375000	10496.368164
2587.644043	10306.612305
2589.911377	10405.414062
2592.177002	10421.595703
2594.440674	10477.544922
2596.702393	10647.413086
2598.962402	10443.642578
2601.220459	10661.327148
2603.476807	10760.791016
2605.731445	10735.094727
2607.984131	10475.175781
2610.235107	10531.362305
2612.484131	10775.475586
2614.731445	10786.348633
2616.976807	10739.328125
2619.220703	10668.816406
2621.462402	10757.638672
2623.702637	10691.458984
2625.940918	10697.756836
2628.177490	10805.767578
2630.412109	10932.952148
2632.645264	10695.340820
2634.876465	10879.750977
2637.105713	10762.793945
2639.333496	10779.181641
2641.559326	10542.875000
2643.783691	10829.974609
2646.005859	10692.295898
2648.226562	10741.267578
2650.445557	10563.835938
2652.662598	10752.573242
2654.877930	10713.643555
2657.091797	10716.423828
2659.303711	10597.127930
2661.513916	10814.706055
2663.722168	10676.027344
2665.928955	10617.552734
2668.134033	10835.617188
2670.337158	10656.873047
2672.538818	10809.419922
2674.738525	10626.938477
2676.936768	10889.995117
2679.133057	10780.110352
2681.327881	10749.780273
2683.520752	10689.749023
2685.712158	10772.221680
2687.901611	10639.014648
2690.089600	10675.844727
2692.275879	10926.561523
2694.460205	10740.483398
2696.643066	10676.652344
2698.824219	10904.992188
2701.003662	10898.519531
2703.181396	10940.240234
2705.357422	11063.582031
2707.531738	10801.935547
2709.704590	10904.625977
2711.875488	10815.157227
2714.044922	10858.067383
2716.212646	10942.550781
2718.378662	11044.466797
2720.542969	11130.355469
2722.705566	10993.263672
2724.866699	11037.576172
2727.026123	11154.883789
2729.183838	11015.143555
2731.339844	11022.437500
2733.494141	11080.790039
2735.646973	11215.866211
2737.798096	11240.731445
2739.947510	11255.155273
2742.095215	11200.916992
2744.241455	11212.982422
2746.385986	11345.127930
2748.528809	10981.640625
2750.670166	11412.680664
2752.809814	11110.595703
2754.947754	11341.250000
2757.084229	11246.926758
2759.218994	11333.970703
2761.352051	11091.806641
2763.483398	11293.789062
2765.613281	11357.563477
2767.741455	11225.253906
2769.868164	11346.657227
2771.993164	11195.294922
2774.116455	11215.588867
2776.238281	11369.047852
2778.358398	11402.457031
2780.477051	11411.126953
2782.593994	11478.847656
2784.709229	11432.024414
2786.822998	11457.267578
2788.935059	11561.844727
2791.045654	11465.199219
2793.154541	11294.901367
2795.261963	11665.308594
2797.367676	11610.048828
2799.471680	11492.914062
2801.574219	11534.924805
2803.675293	11557.951172
2805.774658	11670.318359
2807.872314	11456.307617
2809.968506	11863.337891
2812.062988	11637.197266
2814.156006	11886.101562
2816.247314	11688.308594
2818.337158	11796.453125
2820.425537	12056.794922
2822.512207	11911.373047
2824.597168	11946.770508
2826.680664	11886.221680
2828.762695	11820.769531
2830.843018	12055.641602
2832.921875	12063.564453
2834.999023	12108.800781
2837.074707	12103.512695
2839.148682	11927.046875
2841.221191	12120.631836
2843.292236	11846.115234
2845.361572	12207.843750
2847.429443	11885.811523
2849.495605	12060.565430
2851.560303	12315.492188
2853.623291	12232.715820
2855.684814	12268.650391
2857.744873	12257.301758
2859.803223	12385.598633
2861.860107	12489.773438
2863.915527	12560.041016
2865.969238	12677.882812
2868.021484	12575.402344
2870.072266	12817.768555
2872.121338	12857.969727
2874.168945	12927.527344
2876.214844	13059.500000
2878.259277	13278.484375
2880.302246	13562.652344
2882.343750	13390.444336
2884.383545	13510.883789
2886.421875	13678.107422
2888.458496	13668.825195
2890.493896	13298.378906
2892.527588	13567.833008
2894.559570	13621.167969
2896.590088	13468.970703
2898.619141	13493.959961
2900.646729	13382.113281
2902.672852	13736.530273
2904.697266	13712.362305
2906.720215	13922.960938
2908.741455	13756.656250
2910.761475	13820.306641
2912.779785	13804.774414
2914.796387	13769.377930
2916.811768	13756.251953
2918.825439	13841.174805
2920.837646	13710.041016
2922.848389	13836.076172
2924.857422	14031.977539
2926.865234	13690.224609
2928.871338	13841.437500
2930.875977	13869.407227
2932.878906	14047.183594
2934.880615	14149.033203
2936.880615	14214.782227
2938.879150	14225.583984
2940.875977	14499.290039
2942.871582	14547.897461
2944.865479	14676.813477
2946.857910	14961.507812
2948.848877	15085.900391
2950.838379	15321.060547
2952.826172	15701.197266
2954.812500	15898.155273
2956.797363	16456.888672
2958.780762	17137.474609
2960.762695	17892.251953
2962.743164	19124.095703
2964.721924	20594.058594
2966.699219	22858.986328
2968.675049	25315.884766
2970.649414	28276.691406
2972.622314	31824.921875
2974.593506	34007.648438
2976.563477	34150.355469
2978.531738	32470.640625
2980.498535	28466.068359
2982.463867	24559.675781
2984.427734	20977.021484
2986.389893	18525.296875
2988.350830	16680.533203
2990.310059	15533.438477
2992.267822	14880.032227
2994.224121	14625.603516
2996.178955	14357.991211
2998.132324	14105.322266
3000.084229	14287.746094
3002.034668	14796.024414
3003.983398	15340.993164
3005.930908	17039.626953
3007.876709	19032.496094
3009.821045	21006.554688
3011.763916	21135.878906
3013.705566	19700.816406
3015.645264	17552.179688
3017.583740	14917.892578
3019.520752	13707.055664
3021.456299	13176.358398
3023.390137	12463.867188
3025.322754	12690.766602
3027.253662	12398.853516
3029.183350	12370.798828
3031.111328	12346.585938
3033.038086	12218.519531
3034.963135	12320.109375
3036.886719	12313.981445
3038.808838	12202.487305
3040.729492	12396.699219
3042.648682	12139.192383
3044.566406	12303.661133
3046.482666	12344.437500
3048.397461	12100.642578
3050.310791	12474.507812
3052.222656	12127.123047
3054.133057	12054.014648
3056.041748	12160.212891
3057.949219	12084.385742
3059.855225	12091.072266
3061.759766	12127.956055
3063.662598	11983.599609
3065.564209	12301.795898
3067.464355	12144.183594
3069.363037	12006.074219
3071.260254	12093.082031
3073.155762	12223.739258
3075.050049	12192.257812
3076.942871	12107.889648
3078.834229	12170.109375
3080.724121	12130.559570
3082.612305	12268.341797
3084.499268	12125.454102
3086.384766	12250.174805
3088.268799	12205.234375
3090.151367	12069.916992
3092.032471	12028.742188
3093.912109	12454.336914
3095.790527	12068.642578
3097.667236	12207.185547
3099.542480	11894.012695
3101.416260	12295.448242
3103.288818	12220.842773
3105.159668	12207.581055
3107.029297	12247.782227
3108.897461	12154.212891
3110.763916	12410.051758
3112.629150	12438.420898
3114.492920	12572.797852
3116.355225	12638.913086
3118.216064	12666.163086
3120.075439	12868.233398
3121.933594	12688.476562
3123.790039	12886.825195
3125.645264	12965.535156
3127.498779	13188.667969
3129.351074	13138.146484
3131.201904	13623.791992
3133.051270	13504.573242
3134.899170	13776.136719
3136.745605	13773.271484
3138.590820	13733.810547
3140.434326	14054.977539
3142.276611	14048.226562
3144.117432	14192.207031
3145.956787	14000.690430
3147.794678	14008.820312
3149.631348	14305.541992
3151.466309	13933.816406
3153.300049	13914.620117
3155.132324	13964.972656
3156.963135	13676.751953
3158.792725	13565.728516
3160.620605	13514.698242
3162.447266	13608.660156
3164.272461	13263.076172
3166.096191	13128.048828
3167.918457	12955.764648
3169.739502	12971.293945
3171.559082	12871.425781
3173.377197	12867.646484
3175.193848	12828.074219
3177.009277	12548.803711
3178.822998	12426.211914
3180.635498	12735.144531
3182.446777	12467.549805
3184.256348	12531.080078
3186.064697	12121.878906
3187.871582	12269.621094
3189.677002	12666.820312
3191.481201	12208.247070
3193.283936	12277.326172
3195.085205	12107.789062
3196.885254	12183.823242
3198.683594	12158.496094
3200.480957	11968.970703
3202.276611	12297.031250
3204.071045	12270.311523
3205.864014	12225.416016
3207.655518	12033.923828
3209.445801	12312.740234
3211.234619	12076.279297
3213.021973	12161.129883
3214.808105	12045.943359
3216.592773	12317.188477
3218.376221	11862.670898
3220.158203	12162.233398
3221.938721	12052.268555
3223.718018	11928.073242
3225.495850	11956.953125
3227.272217	11928.167969
3229.047363	11813.418945
3230.821045	11918.357422
3232.593506	11948.689453
3234.364502	11929.651367
3236.134033	12030.653320
3237.902344	11833.489258
3239.669189	12071.796875
3241.434814	11795.045898
3243.198975	12064.843750
3244.961914	11732.333008
3246.723389	11681.728516
3248.483643	11783.010742
3250.242432	11772.146484
3252.000000	11921.997070
3253.756104	11714.745117
3255.510742	11709.468750
3257.264160	11979.347656
3259.016357	11783.043945
3260.767090	11750.643555
3262.516602	11796.780273
3264.264648	11684.230469
3266.011230	11608.708984
3267.756836	11796.608398
3269.500732	11815.639648
3271.243652	11625.250000
3272.985107	11705.886719
3274.725098	11691.812500
3276.463867	11552.618164
3278.201416	11736.948242
3279.937500	11606.191406
3281.672363	11606.361328
3283.405762	11558.927734
3285.137939	11535.945312
3286.868896	11735.345703
3288.598389	11760.136719
3290.326660	11602.689453
3292.053711	11389.980469
3293.779297	11697.030273
3295.503662	11891.445312
3297.226807	11600.083984
3298.948486	11504.291016
3300.668945	11703.320312
3302.388184	11364.583008
3304.105957	11589.976562
3305.822510	11654.037109
3307.537842	11767.735352
3309.251953	11480.480469
3310.964600	11581.054688
3312.676025	11499.168945
3314.386230	11667.125977
3316.094971	11465.192383
3317.802490	11633.347656
3319.508789	11545.339844
3321.213867	11336.954102
3322.917725	11536.162109
3324.620117	11428.751953
3326.321533	11666.503906
3328.021484	11779.593750
3329.720215	11417.476562
3331.417480	11486.334961
3333.113770	11486.008789
3334.808838	11498.942383
3336.502441	11743.622070
3338.194824	11170.301758
3339.885986	11601.330078
3341.575928	11543.317383
3343.264648	11741.319336
3344.952148	11634.402344
3346.638428	11454.665039
3348.323242	11676.730469
3350.007080	11404.669922
3351.689453	11478.405273
3353.370850	11550.746094
3355.050781	11529.427734
3356.729736	11399.356445
3358.407227	11687.831055
3360.083740	11499.491211
3361.758789	11336.230469
3363.432861	11489.333984
3365.105469	11533.540039
3366.777100	11383.359375
3368.447266	11427.518555
3370.116455	11513.664062
3371.784424	11244.679688
3373.450928	11398.281250
3375.116455	11359.953125
3376.780762	11171.339844
3378.443848	11455.948242
3380.105957	11367.885742
3381.766602	11291.721680
3383.426025	11352.516602
3385.084473	11258.107422
3386.741699	11323.456055
3388.397705	11333.021484
3390.052490	11212.660156
3391.706055	11473.084961
3393.358643	11246.713867
3395.010010	11493.870117
3396.660156	11335.332031
3398.309082	11369.094727
3399.957031	11402.885742
3401.603516	11172.536133
3403.249023	11303.433594
3404.893555	11425.373047
3406.536621	11311.645508
3408.178711	11538.773438
3409.819824	11301.521484
3411.459473	11298.707031
3413.098145	11391.985352
3414.735596	11369.342773
3416.372070	11251.928711
3418.007324	11271.925781
3419.641357	11200.138672
3421.274414	11310.411133
3422.906250	11250.767578
3424.537109	11525.218750
3426.166748	11309.125000
3427.795410	11408.948242
3429.422852	11398.284180
3431.049072	11390.658203
3432.674316	11467.604492
3434.298340	11472.288086
3435.921387	11242.827148
3437.543457	11313.600586
3439.164307	11378.279297
3440.783936	11503.216797
3442.402832	11404.352539
3444.020264	11456.792969
3445.636719	11263.383789
3447.252197	11455.037109
3448.866699	11253.582031
3450.479980	11392.751953
3452.092285	11322.749023
3453.703369	11302.283203
3455.313477	11409.088867
3456.922607	11284.510742
3458.530518	11197.060547
3460.137451	11456.400391
3461.743408	11329.984375
3463.348389	11335.789062
3464.952148	11166.997070
3466.554932	11102.467773
3468.156738	11190.790039
3469.757568	11144.888672
3471.357178	11083.277344
3472.955811	11296.791016
3474.553467	11379.111328
3476.150146	11301.803711
3477.745850	11236.908203
3479.340332	11295.759766
3480.934082	11271.517578
3482.526611	11186.000977
3484.118164	11290.411133
3485.708984	11240.900391
3487.298584	11271.509766
3488.887207	11420.159180
3490.474854	11104.446289
3492.061523	11057.749023
3493.647217	11236.423828
3495.231934	11126.598633
3496.815674	11082.912109
3498.398438	11159.189453
3499.980225	10936.827148
3501.561035	10956.127930
3503.140869	11005.492188
