#Wave		#Intensity
201.912354	9062.569336
205.430939	9060.437500
208.946091	9308.986328
212.457809	9401.372070
215.966125	9395.566406
219.471024	9628.667969
222.972519	9802.215820
226.470642	9915.318359
229.965393	10179.547852
233.456787	10115.585938
236.944839	10210.582031
240.429550	10331.553711
243.910934	10438.361328
247.389023	10389.360352
250.863800	10501.394531
254.335281	10550.953125
257.803497	10744.018555
261.268433	10844.338867
264.730133	10846.594727
268.188568	10957.251953
271.643768	11152.013672
275.095734	11233.402344
278.544525	11700.552734
281.990082	11646.126953
285.432465	11791.281250
288.871643	11855.253906
292.307678	11941.136719
295.740540	12134.924805
299.170227	12403.382812
302.596802	12517.624023
306.020233	12622.544922
309.440552	12644.293945
312.857758	12578.988281
316.271881	12152.524414
319.682892	12450.109375
323.090820	12237.625000
326.495697	12204.611328
329.897491	12328.039062
333.296234	12257.465820
336.691925	12433.367188
340.084595	12469.541992
343.474243	12355.290039
346.860870	12581.109375
350.244476	12473.334961
353.625092	12605.675781
357.002716	12620.533203
360.377380	12800.584961
363.749054	12879.339844
367.117767	13131.857422
370.483551	13141.155273
373.846344	13102.113281
377.206238	13398.546875
380.563171	13326.827148
383.917206	13368.245117
387.268341	13367.179688
390.616547	13725.972656
393.961853	13629.493164
397.304291	13799.833984
400.643860	13852.906250
403.980530	13756.936523
407.314331	13797.998047
410.645294	14199.355469
413.973419	14116.106445
417.298706	13917.654297
420.621124	14289.195312
423.940735	14209.477539
427.257538	14214.764648
430.571533	14439.551758
433.882721	14362.681641
437.191101	14468.518555
440.496704	14532.148438
443.799530	14682.902344
447.099579	14555.850586
450.396851	14434.620117
453.691376	14702.438477
456.983154	14802.831055
460.272186	14666.967773
463.558472	14819.926758
466.842010	14970.065430
470.122833	15007.645508
473.400940	15132.960938
476.676361	15313.409180
479.949036	15453.638672
483.219025	15451.866211
486.486328	15788.259766
489.750946	15700.166016
493.012878	16018.095703
496.272156	16096.432617
499.528748	16086.584961
502.782684	16625.255859
506.033966	17119.410156
509.282593	17730.542969
512.528564	19889.931641
515.771912	29464.111328
519.012634	53170.250000
522.250732	79340.578125
525.486206	70952.414062
528.719116	41187.921875
531.949341	23115.027344
535.177002	18793.824219
538.402039	17198.128906
541.624512	16751.128906
544.844421	16532.425781
548.061707	16435.339844
551.276428	16235.418945
554.488647	16117.648438
557.698242	16075.218750
560.905273	15778.565430
564.109741	15830.143555
567.311707	15831.027344
570.511108	15949.877930
573.707947	15784.238281
576.902283	15919.625000
580.094055	15859.387695
583.283325	15975.403320
586.470093	15732.277344
589.654358	16182.000977
592.836121	15856.889648
596.015320	16097.416016
599.192078	15733.116211
602.366333	16073.112305
605.538086	16056.561523
608.707336	16277.397461
611.874146	16309.090820
615.038452	16235.731445
618.200317	16746.544922
621.359680	16724.009766
624.516602	17117.167969
627.671082	16638.343750
630.823059	17210.460938
633.972656	16624.552734
637.119751	17101.382812
640.264404	16773.601562
643.406677	16835.138672
646.546448	16561.537109
649.683838	16762.410156
652.818787	16392.589844
655.951294	16437.974609
659.081421	16672.699219
662.209167	16345.850586
665.334412	16347.247070
668.457336	16605.597656
671.577820	16489.386719
674.695923	16397.029297
677.811646	16595.775391
680.924927	16289.718750
684.035889	16646.158203
687.144409	16492.437500
690.250549	16419.750000
693.354370	16377.541016
696.455811	16492.433594
699.554871	16515.519531
702.651550	16479.689453
705.745850	16491.453125
708.837830	16467.642578
711.927429	16440.539062
715.014709	16502.451172
718.099670	16785.677734
721.182251	16378.337891
724.262451	16588.820312
727.340393	16599.792969
730.415955	16396.169922
733.489136	16839.748047
736.560059	16853.326172
739.628662	16551.617188
742.694885	17022.361328
745.758850	16693.363281
748.820496	16909.312500
751.879822	16829.751953
754.936829	17037.101562
757.991516	16772.525391
761.043884	17071.025391
764.093994	17106.851562
767.141785	17072.173828
770.187256	17104.742188
773.230469	17161.986328
776.271423	17132.158203
779.310059	17430.541016
782.346375	17246.046875
785.380432	17366.130859
788.412231	17353.621094
791.441772	17393.890625
794.468994	17324.369141
797.493958	17483.656250
800.516663	17672.115234
803.537109	17189.582031
806.555298	17668.812500
809.571167	17693.662109
812.584839	17405.789062
815.596252	17540.033203
818.605347	17456.792969
821.612244	17770.003906
824.616882	17431.345703
827.619324	18010.599609
830.619446	17601.589844
833.617371	17636.431641
836.613037	17539.455078
839.606506	17674.492188
842.597717	17761.244141
845.586670	17883.242188
848.573425	17849.718750
851.557922	17785.140625
854.540222	17867.152344
857.520264	17953.466797
860.498108	17952.585938
863.473755	17708.884766
866.447144	18116.417969
869.418335	17906.105469
872.387329	18174.589844
875.354065	17957.242188
878.318665	18270.832031
881.281006	17920.710938
884.241150	18143.505859
887.199097	18389.441406
890.154846	18198.447266
893.108398	18108.728516
896.059753	18043.429688
899.008911	18217.072266
901.955872	18247.593750
904.900635	18205.988281
907.843201	18010.531250
910.783630	18111.501953
913.721863	18169.216797
916.657837	18056.708984
919.591736	18108.480469
922.523376	18049.460938
925.452881	18381.195312
928.380188	18290.669922
931.305298	18582.031250
934.228271	19056.847656
937.149048	19403.970703
940.067688	19944.324219
942.984131	20265.169922
945.898438	20481.822266
948.810547	20810.386719
951.720520	20513.992188
954.628357	20542.992188
957.533997	20421.453125
960.437500	20979.078125
963.338806	20674.123047
966.237976	20788.650391
969.135010	20718.664062
972.029907	20935.275391
974.922607	20888.605469
977.813171	21247.482422
980.701599	21025.250000
983.587891	21169.931641
986.472046	21053.039062
989.354065	20847.480469
992.233948	20602.542969
995.111633	19876.814453
997.987244	19903.755859
1000.860718	19476.568359
1003.731995	19455.343750
1006.601196	19245.000000
1009.468262	19238.375000
1012.333191	19311.138672
1015.195984	19116.779297
1018.056641	19158.953125
1020.915222	19063.873047
1023.771606	19086.796875
1026.625977	19001.136719
1029.478149	19180.923828
1032.328125	18993.435547
1035.176147	18893.439453
1038.021973	18870.591797
1040.865723	19092.099609
1043.707275	18960.251953
1046.546753	18935.613281
1049.384155	19217.550781
1052.219360	19067.839844
1055.052612	19132.320312
1057.883667	19232.210938
1060.712524	19393.216797
1063.539429	19278.527344
1066.364136	19342.433594
1069.186768	19742.990234
1072.007324	19489.117188
1074.825806	19599.419922
1077.642212	19499.500000
1080.456421	19641.046875
1083.268555	19678.783203
1086.078735	19576.000000
1088.886719	19548.730469
1091.692505	19906.316406
1094.496338	19756.185547
1097.298096	19483.576172
1100.097656	19723.119141
1102.895264	19845.941406
1105.690674	19555.767578
1108.484131	19698.318359
1111.275391	19913.619141
1114.064697	19712.449219
1116.851807	19803.382812
1119.636841	19771.464844
1122.419922	20155.408203
1125.200806	19609.468750
1127.979614	19908.376953
1130.756470	20036.660156
1133.531128	19634.441406
1136.303833	20070.160156
1139.074341	19867.664062
1141.842896	19896.027344
1144.609375	19914.482422
1147.373779	20125.582031
1150.136108	20009.365234
1152.896362	19969.951172
1155.654541	19997.541016
1158.410767	20134.007812
1161.164795	20098.199219
1163.916870	20142.265625
1166.666870	20089.117188
1169.414795	19903.050781
1172.160767	20309.400391
1174.904541	20073.087891
1177.646362	20069.837891
1180.386108	20308.380859
1183.123779	20128.123047
1185.859497	20098.373047
1188.593140	20065.824219
1191.324707	20057.925781
1194.054321	20170.906250
1196.781738	20181.386719
1199.507202	20256.080078
1202.230713	19983.888672
1204.952148	20314.826172
1207.671509	20138.777344
1210.388794	20320.341797
1213.104126	20377.871094
1215.817505	20149.845703
1218.528687	20435.066406
1221.238037	20119.056641
1223.945190	20357.560547
1226.650391	20304.380859
1229.353638	20169.724609
1232.054810	20315.291016
1234.753906	20501.814453
1237.451050	20156.562500
1240.146118	20389.605469
1242.839233	20332.427734
1245.530396	20698.771484
1248.219482	20386.054688
1250.906616	20537.115234
1253.591675	20496.589844
1256.274780	20346.044922
1258.955811	20613.003906
1261.634888	20747.841797
1264.311890	20559.753906
1266.987061	20890.050781
1269.660156	20906.583984
1272.331177	20974.605469
1275.000244	20846.958984
1277.667358	20801.593750
1280.332520	21014.109375
1282.995605	21000.693359
1285.656738	20886.722656
1288.315918	21578.277344
1290.973145	21134.302734
1293.628296	21395.816406
1296.281494	21437.218750
1298.932739	21159.005859
1301.582031	21627.744141
1304.229248	21499.384766
1306.874634	21605.197266
1309.517944	21409.451172
1312.159302	21762.355469
1314.798706	21923.494141
1317.436157	21344.556641
1320.071655	21905.902344
1322.705200	22035.187500
1325.336670	21593.695312
1327.966309	21927.314453
1330.593994	22001.677734
1333.219604	22128.501953
1335.843384	21709.521484
1338.465088	22126.166016
1341.084961	21907.876953
1343.702881	21952.820312
1346.318848	22170.791016
1348.932861	21979.736328
1351.544922	22051.582031
1354.155029	21837.134766
1356.763184	21788.175781
1359.369385	22114.187500
1361.973755	22087.408203
1364.576050	22127.816406
1367.176514	22262.484375
1369.775024	22521.441406
1372.371704	22573.765625
1374.966309	22345.767578
1377.559082	22674.734375
1380.149902	22188.796875
1382.738892	22704.472656
1385.325806	22387.882812
1387.910889	22469.244141
1390.494141	22724.912109
1393.075439	22592.564453
1395.654785	22619.925781
1398.232178	22500.845703
1400.807739	22742.658203
1403.381470	22907.097656
1405.953247	22737.359375
1408.523071	22795.962891
1411.091064	23076.597656
1413.657104	22741.900391
1416.221313	23254.912109
1418.783569	23025.185547
1421.343994	22903.482422
1423.902588	23240.826172
1426.459229	23340.050781
1429.014038	22963.822266
1431.566895	23133.457031
1434.117920	23515.976562
1436.667114	23328.259766
1439.214355	23813.511719
1441.759766	23164.082031
1444.303345	23728.507812
1446.845093	23467.521484
1449.384888	24079.214844
1451.922852	23226.054688
1454.458984	23483.548828
1456.993286	23685.167969
1459.525757	23834.738281
1462.056396	23820.507812
1464.585083	23537.326172
1467.112061	23692.980469
1469.637085	24234.962891
1472.160278	23745.306641
1474.681763	23761.574219
1477.201294	23958.427734
1479.718994	23540.906250
1482.234985	23849.126953
1484.749023	23966.845703
1487.261353	24196.162109
1489.771851	23796.417969
1492.280396	23936.201172
1494.787231	24282.595703
1497.292358	23984.759766
1499.795532	24082.957031
1502.296997	24238.236328
1504.796631	24268.693359
1507.294434	24237.113281
1509.790405	24105.298828
1512.284668	24226.853516
1514.777100	24250.257812
1517.267822	24414.193359
1519.756714	24375.429688
1522.243774	24465.248047
1524.729126	24719.128906
1527.212646	24783.089844
1529.694458	24210.470703
1532.174438	24755.955078
1534.652710	24605.119141
1537.129150	24754.867188
1539.603882	24586.582031
1542.076782	24905.294922
1544.548096	24547.636719
1547.017456	24859.626953
1549.485229	24823.527344
1551.951172	24879.599609
1554.415405	24985.429688
1556.877930	25248.738281
1559.338745	25153.755859
1561.797729	25209.072266
1564.255005	25305.128906
1566.710693	25068.373047
1569.164551	25154.210938
1571.616699	25376.750000
1574.067139	25498.562500
1576.515747	25431.636719
1578.962769	25304.306641
1581.408081	25235.037109
1583.851685	25769.251953
1586.293701	25159.580078
1588.733887	25640.115234
1591.172363	25693.769531
1593.609253	25559.718750
1596.044434	25629.744141
1598.477905	25561.138672
1600.909668	25677.451172
1603.339844	25150.914062
1605.768311	25762.197266
1608.195068	25862.291016
1610.620239	25888.261719
1613.043701	25614.039062
1615.465454	26039.289062
1617.885620	25953.753906
1620.304199	25640.650391
1622.721069	26080.119141
1625.136353	26024.333984
1627.549927	25982.933594
1629.961914	25946.619141
1632.372192	26008.750000
1634.780884	26081.300781
1637.187988	26335.664062
1639.593506	26206.826172
1641.997437	26188.013672
1644.399658	26262.794922
1646.800293	26410.529297
1649.199341	26336.457031
1651.596802	26182.990234
1653.992676	26260.925781
1656.386963	26450.646484
1658.779663	26449.367188
1661.170776	26104.058594
1663.560303	26719.736328
1665.948242	26203.410156
1668.334595	26552.734375
1670.719360	26773.531250
1673.102661	26640.015625
1675.484375	26248.058594
1677.864502	26438.490234
1680.243164	26353.751953
1682.620117	26602.251953
1684.995728	26631.076172
1687.369629	26805.214844
1689.742065	26461.078125
1692.113037	26506.593750
1694.482422	26907.697266
1696.850342	26603.992188
1699.216675	26712.929688
1701.581543	26833.585938
1703.944824	26397.933594
1706.306763	26832.816406
1708.666992	26647.529297
1711.025879	26621.994141
1713.383301	26382.154297
1715.739136	26897.515625
1718.093628	26588.425781
1720.446533	26941.898438
1722.797974	26826.904297
1725.147949	26798.947266
1727.496460	26827.322266
1729.843628	26718.275391
1732.189209	26628.224609
1734.533447	26878.214844
1736.876099	26789.111328
1739.217407	26814.097656
1741.557373	26660.632812
1743.895752	26763.507812
1746.232788	27153.140625
1748.568359	26803.556641
1750.902588	26416.005859
1753.235352	26833.837891
1755.566772	27049.447266
1757.896729	26808.173828
1760.225342	26724.376953
1762.552490	26830.564453
1764.878296	26750.867188
1767.202759	26607.560547
1769.525879	26597.472656
1771.847534	26194.283203
1774.167847	26606.179688
1776.486816	26367.351562
1778.804443	26176.726562
1781.120728	26171.464844
1783.435547	26330.292969
1785.749146	26483.843750
1788.061401	25865.537109
1790.372314	26118.410156
1792.681885	25947.195312
1794.990234	25975.009766
1797.297119	25622.427734
1799.602783	25713.945312
1801.907227	25450.746094
1804.210205	25793.992188
1806.511963	25378.365234
1808.812500	24991.554688
1811.111694	25237.085938
1813.409546	25033.509766
1815.706299	25032.121094
1818.001587	25176.615234
1820.295776	24522.429688
1822.588623	24452.978516
1824.880249	24645.216797
