#Wave		#Intensity
2372.977051	15325.288086
2375.433838	15079.025391
2377.888184	15230.150391
2380.340088	15338.695312
2382.789551	15235.118164
2385.236816	15399.960938
2387.681885	15312.501953
2390.124268	15512.433594
2392.564453	15814.122070
2395.002441	15802.541016
2397.437988	15908.928711
2399.871338	16239.445312
2402.302246	16106.730469
2404.730957	16209.438477
2407.157471	16379.261719
2409.581543	16557.603516
2412.003418	16662.937500
2414.422852	16883.107422
2416.840332	16860.597656
2419.255371	16913.564453
2421.668213	17117.851562
2424.078613	17211.498047
2426.487061	17502.496094
2428.893311	17342.013672
2431.297119	17500.451172
2433.698975	17543.587891
2436.098389	17520.074219
2438.495850	17776.984375
2440.890869	17858.960938
2443.283936	18011.031250
2445.674805	18021.115234
2448.063477	18255.146484
2450.449951	18199.373047
2452.834229	18131.914062
2455.216309	18576.419922
2457.596436	18510.128906
2459.974365	18525.675781
2462.350098	18865.300781
2464.723877	18785.250000
2467.095459	19036.011719
2469.464844	19295.609375
2471.832031	19077.236328
2474.197510	19642.697266
2476.560547	19572.250000
2478.921631	19799.162109
2481.280762	19748.765625
2483.637695	20000.529297
2485.992432	19875.806641
2488.345215	19921.886719
2490.696045	20026.492188
2493.044678	19740.589844
2495.391357	20146.613281
2497.736084	19837.830078
2500.078613	20147.431641
2502.419189	19866.857422
2504.757812	20437.771484
2507.094482	20201.806641
2509.428955	20341.265625
2511.761475	20248.337891
2514.092041	20430.890625
2516.420654	20437.636719
2518.747070	20667.851562
2521.071777	20615.568359
2523.394287	20277.908203
2525.714844	20720.667969
2528.033447	20482.707031
2530.350342	20783.859375
2532.665039	20820.867188
2534.977783	20701.156250
2537.288574	20709.941406
2539.597656	20685.132812
2541.904541	21047.109375
2544.209473	20880.373047
2546.512695	20555.919922
2548.813965	20716.501953
2551.113037	21212.197266
2553.410400	21013.314453
2555.705811	21113.562500
2557.999512	21124.554688
2560.291016	20970.794922
2562.580811	20922.646484
2564.868652	21062.328125
2567.154541	21137.675781
2569.438721	20862.857422
2571.720947	21223.992188
2574.001221	21210.736328
2576.279785	20947.251953
2578.556396	21201.613281
2580.831055	21074.990234
2583.104004	21316.595703
2585.375000	21372.521484
2587.644043	21061.625000
2589.911377	21198.951172
2592.177002	21103.621094
2594.440674	21231.191406
2596.702393	21379.933594
2598.962402	21317.595703
2601.220459	21488.718750
2603.476807	21298.876953
2605.731445	21308.292969
2607.984131	21224.466797
2610.235107	21099.376953
2612.484131	21136.339844
2614.731445	21293.472656
2616.976807	21237.060547
2619.220703	21373.289062
2621.462402	21264.373047
2623.702637	21108.378906
2625.940918	21115.169922
2628.177490	21151.001953
2630.412109	21121.976562
2632.645264	21057.046875
2634.876465	21386.386719
2637.105713	21091.621094
2639.333496	21291.269531
2641.559326	20673.560547
2643.783691	21351.966797
2646.005859	20825.509766
2648.226562	21308.035156
2650.445557	20789.666016
2652.662598	21118.388672
2654.877930	20954.460938
2657.091797	21052.255859
2659.303711	21011.156250
2661.513916	20819.525391
2663.722168	20791.707031
2665.928955	20862.380859
2668.134033	21315.224609
2670.337158	20509.261719
2672.538818	21052.193359
2674.738525	20281.076172
2676.936768	20674.498047
2679.133057	20697.449219
2681.327881	20806.980469
2683.520752	20696.638672
2685.712158	20926.083984
2687.901611	20630.646484
2690.089600	20632.958984
2692.275879	20785.054688
2694.460205	20638.664062
2696.643066	20524.093750
2698.824219	20635.125000
2701.003662	20534.091797
2703.181396	20559.156250
2705.357422	20607.214844
2707.531738	20463.314453
2709.704590	20548.148438
2711.875488	20477.634766
2714.044922	20483.048828
2716.212646	20411.179688
2718.378662	20777.769531
2720.542969	20495.748047
2722.705566	20207.492188
2724.866699	20365.318359
2727.026123	20349.705078
2729.183838	20309.714844
2731.339844	20358.927734
2733.494141	20567.171875
2735.646973	20375.064453
2737.798096	20331.406250
2739.947510	20189.960938
2742.095215	20228.695312
2744.241455	20202.238281
2746.385986	20700.312500
2748.528809	20012.648438
2750.670166	20568.511719
2752.809814	20061.933594
2754.947754	20470.142578
2757.084229	20168.638672
2759.218994	20490.855469
2761.352051	19956.812500
2763.483398	20257.039062
2765.613281	20375.769531
2767.741455	20124.638672
2769.868164	20235.185547
2771.993164	20172.943359
2774.116455	19803.296875
2776.238281	20369.789062
2778.358398	20148.271484
2780.477051	20374.820312
2782.593994	20052.554688
2784.709229	20275.798828
2786.822998	19964.765625
2788.935059	19926.664062
2791.045654	20390.736328
2793.154541	19845.501953
2795.261963	20057.498047
2797.367676	20122.582031
2799.471680	19865.761719
2801.574219	20149.554688
2803.675293	19987.533203
2805.774658	20303.972656
2807.872314	19623.380859
2809.968506	20316.875000
2812.062988	19860.816406
2814.156006	19911.699219
2816.247314	20094.136719
2818.337158	20480.201172
2820.425537	20262.263672
2822.512207	20147.017578
2824.597168	20010.000000
2826.680664	19941.158203
2828.762695	20102.753906
2830.843018	20102.349609
2832.921875	20051.421875
2834.999023	19940.226562
2837.074707	20044.447266
2839.148682	19925.822266
2841.221191	20016.896484
2843.292236	19738.697266
2845.361572	20282.779297
2847.429443	19762.535156
2849.495605	20163.455078
2851.560303	20343.386719
2853.623291	20060.685547
2855.684814	19866.070312
2857.744873	20084.984375
2859.803223	20334.582031
2861.860107	20036.386719
2863.915527	20163.453125
2865.969238	20093.500000
2868.021484	20077.031250
2870.072266	20223.888672
2872.121338	20236.753906
2874.168945	20177.589844
2876.214844	20141.541016
2878.259277	20167.791016
2880.302246	20238.125000
2882.343750	20019.535156
2884.383545	20293.289062
2886.421875	20317.238281
2888.458496	20392.767578
2890.493896	20115.855469
2892.527588	20097.898438
2894.559570	20205.388672
2896.590088	20283.482422
2898.619141	20250.796875
2900.646729	20100.912109
2902.672852	20646.750000
2904.697266	20221.535156
2906.720215	20318.427734
2908.741455	20546.554688
2910.761475	20449.500000
2912.779785	20326.275391
2914.796387	20650.347656
2916.811768	20528.312500
2918.825439	20625.820312
2920.837646	20605.439453
2922.848389	20736.707031
2924.857422	21014.992188
2926.865234	20565.222656
2928.871338	20942.230469
2930.875977	20778.544922
2932.878906	20841.751953
2934.880615	20961.253906
2936.880615	20848.429688
2938.879150	20624.093750
2940.875977	20560.900391
2942.871582	20860.921875
2944.865479	20672.416016
2946.857910	20466.048828
2948.848877	20525.564453
2950.838379	20771.146484
2952.826172	20481.353516
2954.812500	20437.789062
2956.797363	20256.861328
2958.780762	20381.947266
2960.762695	20021.560547
2962.743164	20077.207031
2964.721924	20456.351562
2966.699219	19865.066406
2968.675049	19970.042969
2970.649414	19815.589844
2972.622314	20103.152344
2974.593506	20148.921875
2976.563477	19878.734375
2978.531738	20075.531250
2980.498535	19968.828125
2982.463867	20020.962891
2984.427734	19696.351562
2986.389893	19841.343750
2988.350830	19939.375000
2990.310059	19682.833984
2992.267822	19680.001953
2994.224121	19780.666016
2996.178955	19767.656250
2998.132324	19529.363281
3000.084229	19344.494141
3002.034668	19537.468750
3003.983398	19372.830078
3005.930908	19487.796875
3007.876709	19502.718750
3009.821045	19274.650391
3011.763916	19282.984375
3013.705566	19188.304688
3015.645264	19467.195312
3017.583740	19003.644531
3019.520752	19173.099609
3021.456299	19276.929688
3023.390137	18875.482422
3025.322754	19183.626953
3027.253662	19154.332031
3029.183350	19064.089844
3031.111328	18842.742188
3033.038086	19114.146484
3034.963135	19093.767578
3036.886719	18986.273438
3038.808838	18965.750000
3040.729492	18912.646484
3042.648682	18740.912109
3044.566406	18793.132812
3046.482666	18932.833984
3048.397461	18392.505859
3050.310791	18802.574219
3052.222656	18845.816406
3054.133057	18599.904297
3056.041748	18789.722656
3057.949219	18665.263672
3059.855225	18597.007812
3061.759766	18697.976562
3063.662598	18697.937500
3065.564209	18888.523438
3067.464355	18596.521484
3069.363037	18552.925781
3071.260254	18468.404297
3073.155762	18729.263672
3075.050049	18520.669922
3076.942871	18562.701172
3078.834229	18500.363281
3080.724121	18459.085938
3082.612305	18702.371094
3084.499268	18272.974609
3086.384766	18645.087891
3088.268799	18441.873047
3090.151367	18303.406250
3092.032471	18253.759766
3093.912109	18708.105469
3095.790527	18275.335938
3097.667236	18799.652344
3099.542480	18367.597656
3101.416260	18640.625000
3103.288818	18426.728516
3105.159668	18511.802734
3107.029297	18364.318359
3108.897461	18290.203125
3110.763916	18435.609375
3112.629150	18352.033203
3114.492920	18586.224609
3116.355225	18310.650391
3118.216064	18258.996094
3120.075439	18741.021484
3121.933594	18485.078125
3123.790039	18371.468750
3125.645264	18457.121094
3127.498779	18468.720703
3129.351074	18353.453125
3131.201904	18556.777344
3133.051270	18227.794922
3134.899170	18425.904297
3136.745605	18539.015625
3138.590820	18163.154297
3140.434326	18569.113281
3142.276611	18025.751953
3144.117432	18640.003906
3145.956787	18159.714844
3147.794678	18130.261719
3149.631348	18402.951172
3151.466309	18068.458984
3153.300049	18404.218750
3155.132324	18396.650391
3156.963135	18199.255859
3158.792725	18404.677734
3160.620605	18298.589844
3162.447266	18456.480469
3164.272461	17966.722656
3166.096191	18400.105469
3167.918457	18591.330078
3169.739502	18170.521484
3171.559082	18374.207031
3173.377197	18344.439453
3175.193848	18398.556641
3177.009277	18061.628906
3178.822998	18028.757812
3180.635498	18290.994141
3182.446777	18368.654297
3184.256348	18475.433594
3186.064697	18149.638672
3187.871582	18376.759766
3189.677002	18335.595703
3191.481201	17959.011719
3193.283936	18495.730469
3195.085205	18118.658203
3196.885254	18411.851562
3198.683594	18218.978516
3200.480957	18212.199219
3202.276611	18398.908203
3204.071045	18141.447266
3205.864014	18335.333984
3207.655518	18133.214844
3209.445801	18159.791016
3211.234619	18214.343750
3213.021973	18390.650391
3214.808105	17979.333984
3216.592773	18235.546875
3218.376221	18071.578125
3220.158203	18258.080078
3221.938721	18333.937500
3223.718018	18060.021484
3225.495850	18329.869141
3227.272217	18242.666016
3229.047363	18255.308594
3230.821045	18004.386719
3232.593506	18179.046875
3234.364502	18167.626953
3236.134033	18457.080078
3237.902344	18239.408203
3239.669189	18346.810547
3241.434814	18151.343750
3243.198975	18400.515625
3244.961914	17982.107422
3246.723389	18086.740234
3248.483643	18127.599609
3250.242432	18191.250000
3252.000000	18161.095703
3253.756104	17978.552734
3255.510742	18149.035156
3257.264160	18469.468750
3259.016357	18209.640625
3260.767090	18086.482422
3262.516602	18111.738281
3264.264648	18139.875000
3266.011230	18243.892578
3267.756836	18244.923828
3269.500732	18366.345703
3271.243652	18122.134766
3272.985107	18104.357422
3274.725098	18409.792969
3276.463867	18044.226562
3278.201416	18155.792969
3279.937500	18198.392578
3281.672363	18235.273438
3283.405762	18283.728516
3285.137939	18296.156250
3286.868896	18282.585938
3288.598389	18349.917969
3290.326660	18278.466797
3292.053711	18244.523438
3293.779297	18382.910156
3295.503662	18085.087891
3297.226807	18462.921875
3298.948486	18003.496094
3300.668945	18300.423828
3302.388184	18193.511719
3304.105957	18083.507812
3305.822510	18025.746094
3307.537842	18193.787109
3309.251953	18208.908203
3310.964600	18402.111328
3312.676025	17936.775391
3314.386230	18217.732422
3316.094971	18326.458984
3317.802490	18318.203125
3319.508789	18049.117188
3321.213867	18106.576172
3322.917725	18081.929688
3324.620117	17823.744141
3326.321533	17888.443359
3328.021484	18273.812500
3329.720215	18060.746094
3331.417480	17867.958984
3333.113770	18028.597656
3334.808838	17735.156250
3336.502441	18289.998047
3338.194824	17536.871094
3339.885986	18079.035156
3341.575928	17948.875000
3343.264648	17960.621094
3344.952148	17944.210938
3346.638428	17797.281250
3348.323242	18096.705078
3350.007080	17704.632812
3351.689453	17753.267578
3353.370850	17721.650391
3355.050781	17993.527344
3356.729736	17673.097656
3358.407227	17863.322266
3360.083740	17748.080078
3361.758789	17663.984375
3363.432861	17688.765625
3365.105469	17795.757812
3366.777100	17656.097656
3368.447266	17582.064453
3370.116455	17477.943359
3371.784424	17662.929688
3373.450928	17702.660156
3375.116455	17724.410156
3376.780762	17621.486328
3378.443848	17536.425781
3380.105957	17598.636719
3381.766602	17453.167969
3383.426025	17379.775391
3385.084473	17384.640625
3386.741699	17748.529297
3388.397705	17702.279297
3390.052490	17393.068359
3391.706055	17677.531250
3393.358643	17372.345703
3395.010010	17661.681641
3396.660156	17752.929688
3398.309082	17568.351562
3399.957031	17345.554688
3401.603516	17430.615234
3403.249023	17388.144531
3404.893555	17263.488281
3406.536621	17683.289062
3408.178711	17595.144531
3409.819824	17375.824219
3411.459473	17308.625000
3413.098145	17711.203125
3414.735596	17280.728516
3416.372070	17567.675781
3418.007324	17530.878906
3419.641357	17203.326172
3421.274414	17544.302734
3422.906250	17268.333984
3424.537109	17316.957031
3426.166748	17038.857422
3427.795410	17463.427734
3429.422852	17555.201172
3431.049072	17394.964844
3432.674316	17382.150391
3434.298340	17084.519531
3435.921387	17259.333984
3437.543457	17343.410156
3439.164307	17316.515625
3440.783936	17539.589844
3442.402832	17234.720703
3444.020264	17428.605469
3445.636719	17222.166016
3447.252197	17145.414062
3448.866699	17331.785156
3450.479980	17141.814453
3452.092285	17053.902344
3453.703369	17235.828125
3455.313477	17181.951172
3456.922607	17151.275391
3458.530518	17103.423828
3460.137451	17223.494141
3461.743408	17254.953125
3463.348389	17040.291016
3464.952148	16868.960938
3466.554932	16900.146484
3468.156738	16887.634766
3469.757568	16689.220703
3471.357178	16898.404297
3472.955811	17068.724609
3474.553467	16824.560547
3476.150146	17037.257812
3477.745850	16789.556641
3479.340332	16828.408203
3480.934082	16969.242188
3482.526611	16881.035156
3484.118164	16654.457031
3485.708984	16636.595703
3487.298584	16678.437500
3488.887207	16723.443359
3490.474854	16730.677734
3492.061523	16586.623047
3493.647217	16716.683594
3495.231934	16490.335938
3496.815674	16307.871094
3498.398438	16583.203125
3499.980225	16240.873047
3501.561035	16114.743164
3503.140869	16387.185547
