#Wave		#Intensity
201.912354	15780.451172
205.430939	13990.673828
208.946091	12764.030273
212.457809	11783.394531
215.966125	11232.636719
219.471024	10956.096680
222.972519	10712.538086
226.470642	10464.184570
229.965393	10361.963867
233.456787	10127.042969
236.944839	10071.536133
240.429550	10038.129883
243.910934	10049.148438
247.389023	9850.988281
250.863800	9984.814453
254.335281	9840.163086
257.803497	9938.847656
261.268433	9977.801758
264.730133	9857.915039
268.188568	10029.087891
271.643768	10097.083984
275.095734	10215.146484
278.544525	10571.889648
281.990082	10391.616211
285.432465	10574.097656
288.871643	10554.802734
292.307678	10659.858398
295.740540	10923.107422
299.170227	11167.126953
302.596802	11217.489258
306.020233	11372.339844
309.440552	11289.887695
312.857758	11081.419922
316.271881	10907.688477
319.682892	11089.077148
323.090820	11107.173828
326.495697	11035.694336
329.897491	11019.172852
333.296234	11076.882812
336.691925	11301.790039
340.084595	11678.129883
343.474243	11937.103516
346.860870	12633.521484
350.244476	13490.736328
353.625092	14870.053711
357.002716	15987.538086
360.377380	16362.435547
363.749054	15802.216797
367.117767	14563.412109
370.483551	13374.386719
373.846344	12511.090820
377.206238	12230.350586
380.563171	11982.601562
383.917206	11809.672852
387.268341	11641.636719
390.616547	11763.732422
393.961853	11758.221680
397.304291	11706.298828
400.643860	11712.649414
403.980530	11844.856445
407.314331	11786.790039
410.645294	11838.174805
413.973419	11794.971680
417.298706	11671.974609
420.621124	11757.923828
423.940735	11789.769531
427.257538	11927.919922
430.571533	11950.858398
433.882721	12004.764648
437.191101	11949.166016
440.496704	12029.579102
443.799530	12270.570312
447.099579	12047.553711
450.396851	11937.108398
453.691376	12144.403320
456.983154	12335.312500
460.272186	12263.518555
463.558472	12573.468750
466.842010	12749.909180
470.122833	12990.624023
473.400940	13377.375977
476.676361	14063.178711
479.949036	15332.942383
483.219025	16824.193359
486.486328	19036.353516
489.750946	20532.281250
493.012878	22114.935547
496.272156	22972.220703
499.528748	23562.951172
502.782684	24541.056641
506.033966	24760.248047
509.282593	24455.681641
512.528564	27377.632812
515.771912	45854.558594
519.012634	84945.578125
522.250732	107903.648438
525.486206	80378.375000
528.719116	39073.699219
531.949341	20890.748047
535.177002	16597.183594
538.402039	15050.882812
541.624512	14357.001953
544.844421	14140.258789
548.061707	14004.734375
551.276428	13491.798828
554.488647	13426.315430
557.698242	13299.170898
560.905273	13262.226562
564.109741	13223.642578
567.311707	13235.725586
570.511108	13013.387695
573.707947	12947.861328
576.902283	13090.391602
580.094055	12964.469727
583.283325	13239.673828
586.470093	13163.838867
589.654358	13779.549805
592.836121	14328.637695
596.015320	15792.311523
599.192078	17408.576172
602.366333	19109.267578
605.538086	18811.345703
608.707336	17104.085938
611.874146	15312.814453
615.038452	14260.581055
618.200317	13892.990234
621.359680	13884.844727
624.516602	13921.805664
627.671082	13633.868164
630.823059	13859.421875
633.972656	13339.964844
637.119751	13610.088867
640.264404	13543.536133
643.406677	13443.447266
646.546448	13281.079102
649.683838	13453.117188
652.818787	13348.684570
655.951294	13185.814453
659.081421	13571.376953
662.209167	13327.663086
665.334412	13377.128906
668.457336	13606.776367
671.577820	13650.090820
674.695923	13825.747070
677.811646	14263.235352
680.924927	14481.356445
684.035889	15158.660156
687.144409	15741.282227
690.250549	16869.662109
693.354370	17857.986328
696.455811	19368.533203
699.554871	19127.607422
702.651550	17920.744141
705.745850	15964.683594
708.837830	14525.515625
711.927429	13911.100586
715.014709	13647.176758
718.099670	13425.787109
721.182251	13263.250977
724.262451	13275.763672
727.340393	13250.918945
730.415955	13093.526367
733.489136	13078.239258
736.560059	13370.642578
739.628662	12838.991211
742.694885	13421.070312
745.758850	13117.904297
748.820496	13376.875977
751.879822	13371.460938
754.936829	13393.830078
757.991516	13188.701172
761.043884	13482.858398
764.093994	13461.881836
767.141785	13367.858398
770.187256	13615.988281
773.230469	13666.498047
776.271423	13360.271484
779.310059	13702.711914
782.346375	13600.219727
785.380432	13688.723633
788.412231	13580.269531
791.441772	13770.369141
794.468994	13834.389648
797.493958	13798.493164
800.516663	14018.924805
803.537109	13981.433594
806.555298	14422.641602
809.571167	14405.268555
812.584839	14362.969727
815.596252	14451.765625
818.605347	14195.899414
821.612244	14293.824219
824.616882	14062.395508
827.619324	14361.017578
830.619446	14341.758789
833.617371	14420.028320
836.613037	14336.502930
839.606506	14435.742188
842.597717	14787.525391
845.586670	14750.056641
848.573425	14694.943359
851.557922	14486.446289
854.540222	14520.728516
857.520264	14624.680664
860.498108	14807.693359
863.473755	14701.114258
866.447144	14905.455078
869.418335	15003.232422
872.387329	15363.860352
875.354065	15859.000000
878.318665	16829.640625
881.281006	17888.642578
884.241150	21719.339844
887.199097	30637.800781
890.154846	46475.566406
893.108398	59907.605469
896.059753	58031.042969
899.008911	42246.824219
901.955872	26577.353516
904.900635	19677.238281
907.843201	17257.791016
910.783630	16368.540039
913.721863	15913.592773
916.657837	15692.119141
919.591736	15911.706055
922.523376	15805.003906
925.452881	16024.982422
928.380188	15946.369141
931.305298	16067.620117
934.228271	16498.658203
937.149048	16750.582031
940.067688	17479.978516
942.984131	17532.402344
945.898438	17656.949219
948.810547	17625.429688
951.720520	17561.207031
954.628357	17759.962891
957.533997	17485.789062
960.437500	17968.906250
963.338806	17674.638672
966.237976	17909.386719
969.135010	17984.826172
972.029907	18364.353516
974.922607	18128.232422
977.813171	18433.166016
980.701599	18304.050781
983.587891	18326.312500
986.472046	17971.535156
989.354065	17628.365234
992.233948	17440.066406
995.111633	16574.726562
997.987244	16634.859375
1000.860718	16248.745117
1003.731995	16146.760742
1006.601196	16052.458008
1009.468262	16012.069336
1012.333191	15951.541016
1015.195984	16074.302734
1018.056641	16141.306641
1020.915222	16473.398438
1023.771606	16914.500000
1026.625977	17868.634766
1029.478149	20216.972656
1032.328125	23351.232422
1035.176147	26297.898438
1038.021973	26641.611328
1040.865723	24160.292969
1043.707275	20959.125000
1046.546753	19146.039062
1049.384155	18621.929688
1052.219360	17889.822266
1055.052612	17210.441406
1057.883667	16587.439453
1060.712524	16593.593750
1063.539429	16347.702148
1066.364136	16082.850586
1069.186768	16306.500000
1072.007324	16140.478516
1074.825806	16369.809570
1077.642212	16189.369141
1080.456421	16395.078125
1083.268555	16423.285156
1086.078735	16570.740234
1088.886719	16639.167969
1091.692505	17074.775391
1094.496338	17241.746094
1097.298096	17569.572266
1100.097656	17962.173828
1102.895264	18973.750000
1105.690674	19840.156250
1108.484131	20608.505859
1111.275391	21116.460938
1114.064697	20230.513672
1116.851807	19079.525391
1119.636841	18386.402344
1122.419922	18379.447266
1125.200806	18090.191406
1127.979614	18809.003906
1130.756470	19812.480469
1133.531128	21015.664062
1136.303833	23459.517578
1139.074341	24686.146484
1141.842896	24659.406250
1144.609375	23103.582031
1147.373779	21275.925781
1150.136108	19405.708984
1152.896362	18493.648438
1155.654541	18037.033203
1158.410767	17691.294922
1161.164795	17312.355469
1163.916870	17217.171875
1166.666870	17140.931641
1169.414795	16525.982422
1172.160767	16922.527344
1174.904541	16746.556641
1177.646362	16565.753906
1180.386108	16830.880859
1183.123779	16616.980469
1185.859497	16613.851562
1188.593140	16523.828125
1191.324707	16654.228516
1194.054321	16874.576172
1196.781738	16719.441406
1199.507202	16869.517578
1202.230713	16548.898438
1204.952148	16925.041016
1207.671509	16794.265625
1210.388794	16840.849609
1213.104126	16962.992188
1215.817505	17027.259766
1218.528687	17322.134766
1221.238037	16905.986328
1223.945190	17385.882812
1226.650391	17421.050781
1229.353638	17183.433594
1232.054810	17438.755859
1234.753906	17494.388672
1237.451050	17343.392578
1240.146118	17822.003906
1242.839233	17391.591797
1245.530396	17919.242188
1248.219482	17903.804688
1250.906616	17738.544922
1253.591675	17997.597656
1256.274780	17710.078125
1258.955811	18203.521484
1261.634888	18432.675781
1264.311890	18207.373047
1266.987061	18554.603516
1269.660156	18624.574219
1272.331177	19048.423828
1275.000244	18980.220703
1277.667358	19341.207031
1280.332520	19606.103516
1282.995605	19981.214844
1285.656738	20085.375000
1288.315918	21079.058594
1290.973145	20977.179688
1293.628296	21940.033203
1296.281494	22582.998047
1298.932739	23361.751953
1301.582031	24813.539062
1304.229248	26266.533203
1306.874634	28629.886719
1309.517944	31332.496094
1312.159302	35192.871094
1314.798706	39998.585938
1317.436157	45413.347656
1320.071655	56712.695312
1322.705200	73268.992188
1325.336670	89059.507812
1327.966309	92275.546875
1330.593994	76891.218750
1333.219604	55747.332031
1335.843384	38783.472656
1338.465088	33221.667969
1341.084961	30771.988281
1343.702881	28320.550781
1346.318848	26523.908203
1348.932861	25023.921875
1351.544922	23944.726562
1354.155029	22798.777344
1356.763184	21970.294922
1359.369385	22350.160156
1361.973755	22177.642578
1364.576050	22222.921875
1367.176514	21952.921875
1369.775024	22541.646484
1372.371704	22961.773438
1374.966309	22998.064453
1377.559082	24356.343750
1380.149902	24593.427734
1382.738892	26133.511719
1385.325806	27656.529297
1387.910889	28975.789062
1390.494141	31616.089844
1393.075439	32816.214844
1395.654785	34815.765625
1398.232178	36693.121094
1400.807739	39341.011719
1403.381470	42154.035156
1405.953247	44896.324219
1408.523071	47622.191406
1411.091064	51561.164062
1413.657104	51069.171875
1416.221313	49961.207031
1418.783569	45149.816406
1421.343994	39093.218750
1423.902588	34644.804688
1426.459229	31620.396484
1429.014038	29087.638672
1431.566895	28865.164062
1434.117920	30384.765625
1436.667114	34653.554688
1439.214355	41662.847656
1441.759766	43499.562500
1444.303345	41835.968750
1446.845093	35281.445312
1449.384888	31881.853516
1451.922852	32181.958984
1454.458984	36875.964844
1456.993286	40823.128906
1459.525757	40483.710938
1462.056396	35867.093750
1464.585083	29898.177734
1467.112061	27206.166016
1469.637085	26666.578125
1472.160278	26015.208984
1474.681763	25817.970703
1477.201294	25826.800781
1479.718994	25668.802734
1482.234985	25916.957031
1484.749023	26132.630859
1487.261353	26546.617188
1489.771851	26686.324219
1492.280396	27210.873047
1494.787231	28328.531250
1497.292358	28763.148438
1499.795532	29869.498047
1502.296997	30965.416016
1504.796631	31514.796875
1507.294434	31771.675781
1509.790405	31819.556641
1512.284668	32093.992188
1514.777100	32131.066406
1517.267822	32033.652344
1519.756714	31096.328125
1522.243774	30808.984375
1524.729126	29906.583984
1527.212646	29195.123047
1529.694458	27984.984375
1532.174438	28051.304688
1534.652710	27465.005859
1537.129150	27712.691406
1539.603882	27162.626953
1542.076782	27353.769531
1544.548096	27202.201172
1547.017456	27405.724609
1549.485229	27598.355469
1551.951172	28258.585938
1554.415405	28400.281250
1556.877930	29277.166016
1559.338745	30217.220703
1561.797729	31492.025391
1564.255005	34715.832031
1566.710693	37126.601562
1569.164551	39786.238281
1571.616699	40203.554688
1574.067139	38741.125000
1576.515747	35899.343750
1578.962769	33519.421875
1581.408081	31460.218750
1583.851685	30914.304688
1586.293701	29703.150391
1588.733887	29882.562500
1591.172363	29621.343750
1593.609253	29477.699219
1596.044434	29292.750000
1598.477905	28733.552734
1600.909668	29017.564453
1603.339844	28465.550781
1605.768311	29081.171875
1608.195068	28879.644531
1610.620239	29080.869141
1613.043701	28873.820312
1615.465454	29333.298828
1617.885620	29745.841797
1620.304199	29638.958984
1622.721069	30175.275391
1625.136353	30296.166016
1627.549927	30550.792969
1629.961914	30892.781250
1632.372192	31255.927734
1634.780884	30984.324219
1637.187988	31256.527344
1639.593506	31500.988281
1641.997437	30749.414062
1644.399658	30669.066406
1646.800293	30785.382812
1649.199341	30534.992188
1651.596802	30432.291016
1653.992676	30773.919922
1656.386963	31212.013672
1658.779663	31471.966797
1661.170776	31969.550781
1663.560303	33784.945312
1665.948242	33896.195312
1668.334595	36029.417969
1670.719360	36973.472656
1673.102661	37355.394531
1675.484375	36439.308594
1677.864502	34942.164062
1680.243164	33172.894531
1682.620117	32507.669922
1684.995728	31256.390625
1687.369629	30899.607422
1689.742065	30334.716797
1692.113037	29699.449219
1694.482422	30055.123047
1696.850342	29587.675781
1699.216675	29610.835938
1701.581543	29729.115234
1703.944824	29329.156250
1706.306763	29558.437500
1708.666992	29564.470703
1711.025879	29591.652344
1713.383301	29257.179688
1715.739136	29845.449219
1718.093628	29480.871094
1720.446533	29929.656250
1722.797974	29730.414062
1725.147949	29413.841797
1727.496460	29570.517578
1729.843628	29455.716797
1732.189209	29358.833984
1734.533447	29715.021484
1736.876099	29382.226562
1739.217407	29610.615234
1741.557373	29357.361328
1743.895752	29709.908203
1746.232788	29883.111328
1748.568359	29447.412109
1750.902588	29299.232422
1753.235352	29875.269531
1755.566772	29969.392578
1757.896729	29657.984375
1760.225342	29182.951172
1762.552490	29737.496094
1764.878296	29883.105469
1767.202759	29966.443359
1769.525879	29674.234375
1771.847534	29397.769531
1774.167847	29866.498047
1776.486816	29693.185547
1778.804443	29775.257812
1781.120728	29711.650391
1783.435547	29631.705078
1785.749146	30145.917969
1788.061401	29812.998047
1790.372314	29822.564453
1792.681885	29575.539062
1794.990234	29637.916016
1797.297119	29639.613281
1799.602783	29632.572266
1801.907227	29554.933594
1804.210205	29791.941406
1806.511963	29715.255859
1808.812500	28859.230469
1811.111694	29537.501953
1813.409546	29485.363281
1815.706299	29377.582031
1818.001587	29451.498047
1820.295776	28883.570312
1822.588623	28859.029297
1824.880249	29080.941406
