#Wave		#Intensity
201.912354	14330.297852
205.430939	12776.410156
208.946091	11352.995117
212.457809	10173.073242
215.966125	9511.718750
219.471024	9169.310547
222.972519	8902.602539
226.470642	8599.613281
229.965393	8505.609375
233.456787	8192.285156
236.944839	8040.313965
240.429550	7934.656738
243.910934	7925.714844
247.389023	7743.501953
250.863800	7755.174805
254.335281	7714.993164
257.803497	7739.585449
261.268433	7741.111816
264.730133	7692.784668
268.188568	7830.842773
271.643768	7816.466797
275.095734	7941.814941
278.544525	8081.145020
281.990082	8084.302734
285.432465	8083.810547
288.871643	8186.514648
292.307678	8259.552734
295.740540	8374.211914
299.170227	8572.883789
302.596802	8628.165039
306.020233	8778.456055
309.440552	8802.545898
312.857758	8524.506836
316.271881	8303.785156
319.682892	8454.962891
323.090820	8332.031250
326.495697	8344.688477
329.897491	8300.022461
333.296234	8513.436523
336.691925	8643.281250
340.084595	8700.383789
343.474243	9009.065430
346.860870	9549.330078
350.244476	10280.416016
353.625092	11478.664062
357.002716	12598.328125
360.377380	13418.426758
363.749054	13116.610352
367.117767	12165.614258
370.483551	10851.183594
373.846344	9766.367188
377.206238	9390.962891
380.563171	8967.215820
383.917206	8683.583008
387.268341	8497.164062
390.616547	8571.732422
393.961853	8503.673828
397.304291	8582.076172
400.643860	8523.598633
403.980530	8471.743164
407.314331	8491.018555
410.645294	8473.530273
413.973419	8422.189453
417.298706	8320.369141
420.621124	8487.737305
423.940735	8450.527344
427.257538	8560.213867
430.571533	8618.015625
433.882721	8559.624023
437.191101	8624.285156
440.496704	8567.274414
443.799530	8739.498047
447.099579	8696.844727
450.396851	8645.001953
453.691376	8662.866211
456.983154	8859.977539
460.272186	8768.560547
463.558472	8991.156250
466.842010	9216.388672
470.122833	9192.040039
473.400940	9651.905273
476.676361	10199.525391
479.949036	11113.174805
483.219025	12682.747070
486.486328	14630.577148
489.750946	16452.933594
493.012878	18006.945312
496.272156	18862.396484
499.528748	19501.193359
502.782684	20459.076172
506.033966	21053.246094
509.282593	20673.320312
512.528564	21659.808594
515.771912	32792.457031
519.012634	65458.410156
522.250732	100776.773438
525.486206	90077.101562
528.719116	47730.878906
531.949341	20908.548828
535.177002	13765.407227
538.402039	11626.140625
541.624512	10800.722656
544.844421	10577.243164
548.061707	10149.022461
551.276428	9912.960938
554.488647	9686.622070
557.698242	9631.266602
560.905273	9423.017578
564.109741	9382.155273
567.311707	9316.226562
570.511108	9186.885742
573.707947	9091.733398
576.902283	9202.249023
580.094055	9041.918945
583.283325	9183.113281
586.470093	9117.409180
589.654358	9749.555664
592.836121	9983.531250
596.015320	11055.325195
599.192078	12733.971680
602.366333	14697.982422
605.538086	15216.333008
608.707336	13697.152344
611.874146	11806.111328
615.038452	10501.476562
618.200317	10159.412109
621.359680	9854.781250
624.516602	9808.617188
627.671082	9558.686523
630.823059	9696.995117
633.972656	9477.518555
637.119751	9507.123047
640.264404	9516.090820
643.406677	9308.654297
646.546448	9260.128906
649.683838	9276.060547
652.818787	9180.360352
655.951294	9126.000977
659.081421	9260.835938
662.209167	9183.250977
665.334412	9196.726562
668.457336	9436.763672
671.577820	9440.818359
674.695923	9556.314453
677.811646	9948.799805
680.924927	10122.656250
684.035889	10717.059570
687.144409	11441.040039
690.250549	12320.647461
693.354370	13350.599609
696.455811	14619.906250
699.554871	14925.519531
702.651550	14100.537109
705.745850	12441.303711
708.837830	10682.500000
711.927429	9773.858398
715.014709	9365.883789
718.099670	9137.185547
721.182251	9022.481445
724.262451	8891.361328
727.340393	8949.284180
730.415955	8934.941406
733.489136	8884.775391
736.560059	8985.944336
739.628662	8802.924805
742.694885	8957.979492
745.758850	8871.740234
748.820496	9040.945312
751.879822	8858.194336
754.936829	8936.852539
757.991516	8892.041016
761.043884	9029.796875
764.093994	9093.983398
767.141785	9022.094727
770.187256	9102.772461
773.230469	9073.483398
776.271423	9072.093750
779.310059	9189.991211
782.346375	9222.427734
785.380432	9240.074219
788.412231	9324.530273
791.441772	9328.235352
794.468994	9243.572266
797.493958	9190.179688
800.516663	9536.176758
803.537109	9381.929688
806.555298	9711.178711
809.571167	9755.759766
812.584839	9773.854492
815.596252	9881.626953
818.605347	9709.573242
821.612244	9562.196289
824.616882	9523.588867
827.619324	9832.138672
830.619446	9736.997070
833.617371	9705.916016
836.613037	9632.220703
839.606506	9769.703125
842.597717	9903.204102
845.586670	9912.272461
848.573425	9917.999023
851.557922	9887.707031
854.540222	9854.009766
857.520264	9872.267578
860.498108	10062.649414
863.473755	9945.810547
866.447144	10178.556641
869.418335	10382.192383
872.387329	10614.754883
875.354065	10831.646484
878.318665	11804.445312
881.281006	12750.836914
884.241150	15174.062500
887.199097	21563.939453
890.154846	35437.746094
893.108398	51843.578125
896.059753	57406.753906
899.008911	44806.027344
901.955872	26814.037109
904.900635	16766.998047
907.843201	13333.519531
910.783630	11903.156250
913.721863	11499.342773
916.657837	11109.397461
919.591736	11052.896484
922.523376	11072.201172
925.452881	11225.509766
928.380188	11293.636719
931.305298	11258.444336
934.228271	11643.999023
937.149048	11711.712891
940.067688	12582.124023
942.984131	12641.193359
945.898438	12878.773438
948.810547	12926.975586
951.720520	12847.233398
954.628357	12796.596680
957.533997	12736.413086
960.437500	12974.050781
963.338806	12793.260742
966.237976	12989.026367
969.135010	13022.839844
972.029907	13216.461914
974.922607	13316.162109
977.813171	13253.405273
980.701599	13383.560547
983.587891	13401.299805
986.472046	13182.419922
989.354065	12918.966797
992.233948	12618.656250
995.111633	12005.144531
997.987244	11778.460938
1000.860718	11306.955078
1003.731995	11297.943359
1006.601196	11165.184570
1009.468262	11065.357422
1012.333191	11099.759766
1015.195984	11033.781250
1018.056641	11073.443359
1020.915222	11458.614258
1023.771606	11722.696289
1026.625977	12492.541992
1029.478149	14393.363281
1032.328125	17152.248047
1035.176147	20822.021484
1038.021973	22303.685547
1040.865723	20760.691406
1043.707275	17198.921875
1046.546753	14910.244141
1049.384155	13954.773438
1052.219360	13274.743164
1055.052612	12713.701172
1057.883667	11871.887695
1060.712524	11603.232422
1063.539429	11346.552734
1066.364136	11164.712891
1069.186768	11370.530273
1072.007324	11219.449219
1074.825806	11188.771484
1077.642212	11183.784180
1080.456421	11311.146484
1083.268555	11426.246094
1086.078735	11497.918945
1088.886719	11555.448242
1091.692505	11967.667969
1094.496338	11955.180664
1097.298096	12446.824219
1100.097656	12797.211914
1102.895264	13616.381836
1105.690674	14474.327148
1108.484131	15387.242188
1111.275391	16024.758789
1114.064697	15593.028320
1116.851807	14594.657227
1119.636841	13540.033203
1122.419922	13383.938477
1125.200806	12971.394531
1127.979614	13579.333008
1130.756470	14508.685547
1133.531128	15465.545898
1136.303833	17544.595703
1139.074341	19265.804688
1141.842896	19834.623047
1144.609375	18874.341797
1147.373779	16855.423828
1150.136108	14810.858398
1152.896362	13624.562500
1155.654541	12927.748047
1158.410767	12798.614258
1161.164795	12275.323242
1163.916870	12132.779297
1166.666870	12007.288086
1169.414795	11658.709961
1172.160767	11793.964844
1174.904541	11620.542969
1177.646362	11529.830078
1180.386108	11602.312500
1183.123779	11479.477539
1185.859497	11254.101562
1188.593140	11496.625977
1191.324707	11566.530273
1194.054321	11576.999023
1196.781738	11565.479492
1199.507202	11566.778320
1202.230713	11556.139648
1204.952148	11847.711914
1207.671509	11756.354492
1210.388794	11906.817383
1213.104126	11953.458984
1215.817505	11886.833984
1218.528687	12094.880859
1221.238037	12033.785156
1223.945190	12181.291992
1226.650391	12357.661133
1229.353638	11996.034180
1232.054810	12259.513672
1234.753906	12419.644531
1237.451050	12259.297852
1240.146118	12411.305664
1242.839233	12342.599609
1245.530396	12796.803711
1248.219482	12655.753906
1250.906616	12879.192383
1253.591675	12899.053711
1256.274780	12715.811523
1258.955811	13330.475586
1261.634888	13179.927734
1264.311890	13447.513672
1266.987061	13601.476562
1269.660156	13719.185547
1272.331177	14021.445312
1275.000244	14024.419922
1277.667358	14348.900391
1280.332520	14771.413086
1282.995605	15056.551758
1285.656738	15413.505859
1288.315918	15902.603516
1290.973145	16049.010742
1293.628296	16972.406250
1296.281494	17585.283203
1298.932739	18470.636719
1301.582031	19754.578125
1304.229248	21039.480469
1306.874634	23450.914062
1309.517944	25751.492188
1312.159302	29610.546875
1314.798706	34095.742188
1317.436157	39510.843750
1320.071655	48688.531250
1322.705200	63253.863281
1325.336670	81405.289062
1327.966309	92049.281250
1330.593994	82816.687500
1333.219604	61275.410156
1335.843384	40167.953125
1338.465088	31514.816406
1341.084961	27940.703125
1343.702881	25676.242188
1346.318848	23651.136719
1348.932861	21879.314453
1351.544922	20485.767578
1354.155029	19281.695312
1356.763184	18445.806641
1359.369385	18216.818359
1361.973755	18093.070312
1364.576050	18249.636719
1367.176514	18162.234375
1369.775024	18829.923828
1372.371704	19125.021484
1374.966309	19272.164062
1377.559082	20635.396484
1380.149902	20860.076172
1382.738892	22596.318359
1385.325806	23821.974609
1387.910889	25265.085938
1390.494141	27841.669922
1393.075439	29572.656250
1395.654785	31779.164062
1398.232178	33422.457031
1400.807739	36149.468750
1403.381470	38904.765625
1405.953247	41733.117188
1408.523071	44772.816406
1411.091064	49179.906250
1413.657104	49646.769531
1416.221313	49987.531250
1418.783569	45725.468750
1421.343994	40221.941406
1423.902588	34618.425781
1426.459229	30935.908203
1429.014038	27964.253906
1431.566895	26900.734375
1434.117920	27531.998047
1436.667114	30453.152344
1439.214355	37639.949219
1441.759766	41855.437500
1444.303345	43116.652344
1446.845093	36707.652344
1449.384888	31651.525391
1451.922852	29578.521484
1454.458984	33369.648438
1456.993286	38592.718750
1459.525757	40473.839844
1462.056396	36798.695312
1464.585083	30572.423828
1467.112061	26680.820312
1469.637085	25952.736328
1472.160278	25130.433594
1474.681763	24738.214844
1477.201294	24991.341797
1479.718994	24704.644531
1482.234985	24836.835938
1484.749023	25372.916016
1487.261353	25669.921875
1489.771851	25639.703125
1492.280396	26275.109375
1494.787231	27580.576172
1497.292358	27945.792969
1499.795532	29103.486328
1502.296997	30126.892578
1504.796631	31203.748047
1507.294434	31334.294922
1509.790405	31806.535156
1512.284668	31838.402344
1514.777100	31678.699219
1517.267822	31825.876953
1519.756714	31140.523438
1522.243774	31017.058594
1524.729126	30207.349609
1527.212646	29381.349609
1529.694458	27800.640625
1532.174438	27860.781250
1534.652710	27101.845703
1537.129150	27159.488281
1539.603882	26934.318359
1542.076782	26766.419922
1544.548096	26909.835938
1547.017456	27154.658203
1549.485229	27262.011719
1551.951172	27604.685547
1554.415405	27820.994141
1556.877930	28442.646484
1559.338745	29337.414062
1561.797729	30277.117188
1564.255005	32976.125000
1566.710693	35513.953125
1569.164551	38567.750000
1571.616699	40234.140625
1574.067139	39609.339844
1576.515747	36580.312500
1578.962769	34138.542969
1581.408081	31344.691406
1583.851685	30667.744141
1586.293701	29211.732422
1588.733887	29636.683594
1591.172363	28766.318359
1593.609253	28603.617188
1596.044434	28258.935547
1598.477905	27648.685547
1600.909668	27865.126953
1603.339844	27143.605469
1605.768311	27473.158203
1608.195068	27835.056641
1610.620239	27644.865234
1613.043701	27306.855469
1615.465454	27851.974609
1617.885620	27961.876953
1620.304199	27765.914062
1622.721069	28456.115234
1625.136353	28673.138672
1627.549927	28851.052734
1629.961914	28793.875000
1632.372192	29353.708984
1634.780884	29319.537109
1637.187988	29251.000000
1639.593506	29288.332031
1641.997437	28764.070312
1644.399658	28560.632812
1646.800293	28472.468750
1649.199341	28414.361328
1651.596802	28100.650391
1653.992676	28034.820312
1656.386963	28703.943359
1658.779663	28299.798828
1661.170776	29093.263672
1663.560303	30623.230469
1665.948242	30579.544922
1668.334595	32457.066406
1670.719360	33789.789062
1673.102661	34767.546875
1675.484375	34343.117188
1677.864502	32829.902344
1680.243164	30816.462891
1682.620117	29851.021484
1684.995728	28443.314453
1687.369629	27646.628906
1689.742065	26917.359375
1692.113037	26557.207031
1694.482422	26533.128906
1696.850342	25961.009766
1699.216675	26145.603516
1701.581543	25946.638672
1703.944824	25532.634766
1706.306763	25906.634766
1708.666992	25841.505859
1711.025879	25679.800781
1713.383301	25702.371094
1715.739136	25629.416016
1718.093628	25354.568359
1720.446533	25703.019531
1722.797974	25371.427734
1725.147949	25274.478516
1727.496460	25526.513672
1729.843628	25284.582031
1732.189209	25498.464844
1734.533447	25520.599609
1736.876099	25123.330078
1739.217407	25526.355469
1741.557373	25262.052734
1743.895752	25150.255859
1746.232788	25489.699219
1748.568359	25064.177734
1750.902588	24951.902344
1753.235352	25543.533203
1755.566772	25594.298828
1757.896729	25277.044922
1760.225342	24957.208984
1762.552490	25338.425781
1764.878296	25271.814453
1767.202759	25305.093750
1769.525879	25061.783203
1771.847534	25114.250000
1774.167847	25486.724609
1776.486816	25298.986328
1778.804443	25025.757812
1781.120728	25323.115234
1783.435547	25429.613281
1785.749146	25435.685547
1788.061401	25036.257812
1790.372314	25279.998047
1792.681885	25398.398438
1794.990234	25149.718750
1797.297119	25058.916016
1799.602783	24978.796875
1801.907227	24929.992188
1804.210205	25134.000000
1806.511963	25095.972656
1808.812500	24504.699219
1811.111694	25032.666016
1813.409546	24712.568359
1815.706299	24933.062500
1818.001587	25014.332031
1820.295776	24240.185547
1822.588623	24297.060547
1824.880249	24380.121094
