#Wave		#Intensity
201.912354	15904.791016
205.430939	14409.165039
208.946091	13238.404297
212.457809	12353.626953
215.966125	11790.598633
219.471024	11603.047852
222.972519	11317.278320
226.470642	11168.848633
229.965393	11156.011719
233.456787	10787.953125
236.944839	10682.909180
240.429550	10838.051758
243.910934	10685.388672
247.389023	10528.805664
250.863800	10623.704102
254.335281	10570.397461
257.803497	10616.430664
261.268433	10772.908203
264.730133	10611.161133
268.188568	10740.391602
271.643768	10956.656250
275.095734	11000.926758
278.544525	11267.064453
281.990082	11244.886719
285.432465	11184.141602
288.871643	11370.401367
292.307678	11563.519531
295.740540	11671.753906
299.170227	11900.424805
302.596802	11988.668945
306.020233	12194.612305
309.440552	12234.245117
312.857758	11971.766602
316.271881	11674.360352
319.682892	11948.058594
323.090820	11977.936523
326.495697	11837.489258
329.897491	11803.317383
333.296234	11926.461914
336.691925	12100.593750
340.084595	12376.695312
343.474243	12388.478516
346.860870	13105.967773
350.244476	13835.781250
353.625092	14892.978516
357.002716	16028.247070
360.377380	16794.332031
363.749054	16369.441406
367.117767	15626.130859
370.483551	14554.654297
373.846344	13513.970703
377.206238	13368.040039
380.563171	13057.237305
383.917206	12807.725586
387.268341	12624.144531
390.616547	12805.333008
393.961853	12740.190430
397.304291	12742.220703
400.643860	12696.314453
403.980530	12753.693359
407.314331	12700.157227
410.645294	12926.449219
413.973419	12966.055664
417.298706	12756.847656
420.621124	12899.404297
423.940735	12951.801758
427.257538	13019.333984
430.571533	13224.249023
433.882721	13135.024414
437.191101	13167.281250
440.496704	13246.453125
443.799530	13486.955078
447.099579	13314.202148
450.396851	13193.446289
453.691376	13287.968750
456.983154	13518.566406
460.272186	13456.122070
463.558472	13659.801758
466.842010	13981.806641
470.122833	14010.184570
473.400940	14455.741211
476.676361	14937.119141
479.949036	15829.475586
483.219025	16920.523438
486.486328	19092.210938
489.750946	20536.111328
493.012878	22022.966797
496.272156	22840.289062
499.528748	23537.617188
502.782684	24471.910156
506.033966	25246.208984
509.282593	24825.068359
512.528564	26039.828125
515.771912	36650.347656
519.012634	67180.250000
522.250732	100153.726562
525.486206	90649.656250
528.719116	51036.769531
531.949341	25383.423828
535.177002	18591.664062
538.402039	16675.658203
541.624512	15994.720703
544.844421	15619.349609
548.061707	15448.489258
551.276428	15012.920898
554.488647	14894.173828
557.698242	14897.500977
560.905273	14729.311523
564.109741	14690.335938
567.311707	14591.934570
570.511108	14514.451172
573.707947	14317.173828
576.902283	14585.228516
580.094055	14588.162109
583.283325	14723.552734
586.470093	14482.576172
589.654358	15356.059570
592.836121	15433.378906
596.015320	16503.960938
599.192078	17717.855469
602.366333	19553.468750
605.538086	20028.335938
608.707336	18801.636719
611.874146	17160.109375
615.038452	16045.327148
618.200317	15726.571289
621.359680	15532.319336
624.516602	15524.634766
627.671082	15250.625977
630.823059	15655.895508
633.972656	15006.865234
637.119751	15235.387695
640.264404	15329.095703
643.406677	15068.085938
646.546448	14976.248047
649.683838	15209.361328
652.818787	15003.414062
655.951294	14975.101562
659.081421	15083.301758
662.209167	14978.234375
665.334412	15051.370117
668.457336	15300.718750
671.577820	15213.946289
674.695923	15332.276367
677.811646	15739.627930
680.924927	15962.093750
684.035889	16614.818359
687.144409	17349.750000
690.250549	18031.060547
693.354370	18668.285156
696.455811	19887.650391
699.554871	20391.703125
702.651550	19644.359375
705.745850	17932.800781
708.837830	16544.453125
711.927429	15662.934570
715.014709	15370.382812
718.099670	15258.086914
721.182251	14962.315430
724.262451	15009.396484
727.340393	15045.161133
730.415955	14923.270508
733.489136	14987.465820
736.560059	15110.356445
739.628662	14736.447266
742.694885	15305.287109
745.758850	14908.081055
748.820496	15116.963867
751.879822	15145.551758
754.936829	15107.108398
757.991516	14952.377930
761.043884	15342.054688
764.093994	15383.954102
767.141785	15177.362305
770.187256	15376.782227
773.230469	15469.693359
776.271423	15295.541992
779.310059	15519.319336
782.346375	15332.564453
785.380432	15436.377930
788.412231	15425.715820
791.441772	15688.995117
794.468994	15708.209961
797.493958	15642.314453
800.516663	15764.052734
803.537109	15515.981445
806.555298	15681.682617
809.571167	15930.512695
812.584839	15738.377930
815.596252	15891.296875
818.605347	15847.532227
821.612244	16138.751953
824.616882	15679.059570
827.619324	16198.714844
830.619446	16095.001953
833.617371	16255.470703
836.613037	15962.179688
839.606506	16072.656250
842.597717	16224.238281
845.586670	16317.485352
848.573425	16374.031250
851.557922	16151.708984
854.540222	16348.183594
857.520264	16367.930664
860.498108	16578.269531
863.473755	16503.255859
866.447144	16791.337891
869.418335	16972.978516
872.387329	17077.412109
875.354065	17390.968750
878.318665	18148.554688
881.281006	18981.523438
884.241150	21329.156250
887.199097	27304.408203
890.154846	39363.148438
893.108398	54542.027344
896.059753	59593.886719
899.008911	48281.597656
901.955872	31960.011719
904.900635	22788.683594
907.843201	19622.210938
910.783630	18375.921875
913.721863	17938.634766
916.657837	17520.269531
919.591736	17511.994141
922.523376	17587.267578
925.452881	17803.449219
928.380188	17756.904297
931.305298	17653.015625
934.228271	17966.345703
937.149048	18386.267578
940.067688	19188.832031
942.984131	19103.656250
945.898438	19336.603516
948.810547	19468.583984
951.720520	19223.597656
954.628357	19405.535156
957.533997	19332.195312
960.437500	19635.005859
963.338806	19408.326172
966.237976	19625.390625
969.135010	19517.431641
972.029907	19832.464844
974.922607	19765.960938
977.813171	19995.136719
980.701599	19876.703125
983.587891	19891.472656
986.472046	19768.429688
989.354065	19607.023438
992.233948	19419.326172
995.111633	18701.406250
997.987244	18618.800781
1000.860718	18208.060547
1003.731995	18140.617188
1006.601196	17745.445312
1009.468262	18018.482422
1012.333191	17951.591797
1015.195984	17818.224609
1018.056641	17960.808594
1020.915222	18309.994141
1023.771606	18514.402344
1026.625977	19120.253906
1029.478149	20849.822266
1032.328125	23449.476562
1035.176147	26476.095703
1038.021973	27864.453125
1040.865723	26431.089844
1043.707275	23528.097656
1046.546753	21400.845703
1049.384155	20910.132812
1052.219360	20222.931641
1055.052612	19853.246094
1057.883667	18727.982422
1060.712524	18680.937500
1063.539429	18280.064453
1066.364136	18192.773438
1069.186768	18396.736328
1072.007324	18078.044922
1074.825806	18349.621094
1077.642212	18075.673828
1080.456421	18333.419922
1083.268555	18505.310547
1086.078735	18339.376953
1088.886719	18569.380859
1091.692505	18862.976562
1094.496338	19060.703125
1097.298096	19325.638672
1100.097656	19564.169922
1102.895264	20603.748047
1105.690674	21209.337891
1108.484131	21876.679688
1111.275391	22598.742188
1114.064697	22244.513672
1116.851807	21472.650391
1119.636841	20297.482422
1122.419922	20551.562500
1125.200806	19998.726562
1127.979614	20522.839844
1130.756470	21454.667969
1133.531128	22541.945312
1136.303833	24219.621094
1139.074341	25693.154297
1141.842896	26562.048828
1144.609375	25333.873047
1147.373779	23620.925781
1150.136108	21726.212891
1152.896362	20169.207031
1155.654541	19865.208984
1158.410767	19464.597656
1161.164795	19132.367188
1163.916870	19078.513672
1166.666870	18907.296875
1169.414795	18329.148438
1172.160767	18746.158203
1174.904541	18356.521484
1177.646362	18385.724609
1180.386108	18506.212891
1183.123779	18436.017578
1185.859497	18415.054688
1188.593140	18282.480469
1191.324707	18297.046875
1194.054321	18537.853516
1196.781738	18621.357422
1199.507202	18452.726562
1202.230713	18536.271484
1204.952148	18580.431641
1207.671509	18550.181641
1210.388794	18474.794922
1213.104126	18686.544922
1215.817505	18658.117188
1218.528687	18869.378906
1221.238037	18390.716797
1223.945190	18893.884766
1226.650391	18861.791016
1229.353638	18667.792969
1232.054810	18728.013672
1234.753906	19204.185547
1237.451050	18844.986328
1240.146118	19175.375000
1242.839233	18772.892578
1245.530396	19344.308594
1248.219482	19302.976562
1250.906616	19272.736328
1253.591675	19252.679688
1256.274780	19197.175781
1258.955811	19609.673828
1261.634888	19617.787109
1264.311890	19457.804688
1266.987061	19863.912109
1269.660156	19843.205078
1272.331177	20177.177734
1275.000244	20002.101562
1277.667358	20421.968750
1280.332520	20715.812500
1282.995605	21024.162109
1285.656738	21220.226562
1288.315918	21750.324219
1290.973145	21619.781250
1293.628296	22577.462891
1296.281494	23254.826172
1298.932739	23472.078125
1301.582031	25068.328125
1304.229248	25912.396484
1306.874634	27999.525391
1309.517944	30303.496094
1312.159302	33585.753906
1314.798706	37361.628906
1317.436157	42288.160156
1320.071655	50322.011719
1322.705200	63955.394531
1325.336670	80826.734375
1327.966309	90474.890625
1330.593994	82306.726562
1333.219604	62823.578125
1335.843384	43239.910156
1338.465088	35677.058594
1341.084961	32364.646484
1343.702881	30298.291016
1346.318848	28314.849609
1348.932861	26544.582031
1351.544922	24966.910156
1354.155029	23713.486328
1356.763184	22617.296875
1359.369385	22435.531250
1361.973755	22119.085938
1364.576050	22220.041016
1367.176514	22013.488281
1369.775024	22353.078125
1372.371704	22719.148438
1374.966309	22645.417969
1377.559082	23953.298828
1380.149902	23947.882812
1382.738892	25518.390625
1385.325806	26910.492188
1387.910889	27839.464844
1390.494141	30346.335938
1393.075439	31983.291016
1395.654785	34040.378906
1398.232178	35530.152344
1400.807739	37731.652344
1403.381470	40188.929688
1405.953247	43004.621094
1408.523071	45699.910156
1411.091064	49654.015625
1413.657104	49748.089844
1416.221313	50068.453125
1418.783569	46331.371094
1421.343994	40330.320312
1423.902588	35605.316406
1426.459229	31804.230469
1429.014038	29113.082031
1431.566895	28255.074219
1434.117920	28706.033203
1436.667114	31327.951172
1439.214355	37678.226562
1441.759766	42054.816406
1444.303345	42367.703125
1446.845093	36480.445312
1449.384888	31596.402344
1451.922852	29646.488281
1454.458984	32716.093750
1456.993286	37213.632812
1459.525757	38819.308594
1462.056396	35564.792969
1464.585083	29571.929688
1467.112061	26280.132812
1469.637085	25727.990234
1472.160278	24853.011719
1474.681763	24540.902344
1477.201294	24765.113281
1479.718994	24510.027344
1482.234985	24760.324219
1484.749023	24935.382812
1487.261353	25315.662109
1489.771851	25246.349609
1492.280396	25765.871094
1494.787231	26501.527344
1497.292358	27236.220703
1499.795532	28160.701172
1502.296997	29150.447266
1504.796631	29846.542969
1507.294434	30189.296875
1509.790405	30357.232422
1512.284668	30438.173828
1514.777100	30315.582031
1517.267822	30307.205078
1519.756714	29632.818359
1522.243774	29591.703125
1524.729126	28796.064453
1527.212646	27984.154297
1529.694458	26886.980469
1532.174438	26986.792969
1534.652710	26092.058594
1537.129150	25881.466797
1539.603882	25724.083984
1542.076782	25983.958984
1544.548096	25655.392578
1547.017456	25978.289062
1549.485229	25882.195312
1551.951172	26375.962891
1554.415405	26450.386719
1556.877930	27179.703125
1559.338745	27905.947266
1561.797729	29108.976562
1564.255005	31549.767578
1566.710693	33744.515625
1569.164551	36825.601562
1571.616699	37964.703125
1574.067139	37344.433594
1576.515747	34718.117188
1578.962769	32799.156250
1581.408081	30445.009766
1583.851685	29687.636719
1586.293701	28108.087891
1588.733887	28475.927734
1591.172363	27866.185547
1593.609253	27848.541016
1596.044434	27496.152344
1598.477905	27227.478516
1600.909668	27256.525391
1603.339844	26574.707031
1605.768311	27000.636719
1608.195068	27030.498047
1610.620239	26933.564453
1613.043701	26844.708984
1615.465454	27426.675781
1617.885620	27672.640625
1620.304199	27467.177734
1622.721069	28083.734375
1625.136353	28295.330078
1627.549927	28515.453125
1629.961914	28695.408203
1632.372192	28983.429688
1634.780884	28888.810547
1637.187988	29046.396484
1639.593506	29082.550781
1641.997437	28645.511719
1644.399658	28671.986328
1646.800293	28467.261719
1649.199341	28327.869141
1651.596802	28204.927734
1653.992676	28274.816406
1656.386963	28807.314453
1658.779663	28799.238281
1661.170776	29527.164062
1663.560303	30762.378906
1665.948242	30798.351562
1668.334595	32702.208984
1670.719360	33815.996094
1673.102661	34460.195312
1675.484375	34392.449219
1677.864502	33051.527344
1680.243164	31380.871094
1682.620117	30524.123047
1684.995728	29474.669922
1687.369629	28579.662109
1689.742065	27813.058594
1692.113037	27442.939453
1694.482422	27518.611328
1696.850342	27009.417969
1699.216675	27169.326172
1701.581543	27467.875000
1703.944824	26860.201172
1706.306763	27229.750000
1708.666992	26929.267578
1711.025879	27053.347656
1713.383301	26796.810547
1715.739136	27137.339844
1718.093628	26712.660156
1720.446533	27111.898438
1722.797974	26948.105469
1725.147949	26987.246094
1727.496460	26834.775391
1729.843628	26868.462891
1732.189209	26716.687500
1734.533447	26910.208984
1736.876099	26677.064453
1739.217407	26908.062500
1741.557373	26670.250000
1743.895752	26869.345703
1746.232788	27189.511719
1748.568359	26593.761719
1750.902588	26529.537109
1753.235352	26863.843750
1755.566772	27088.050781
1757.896729	26897.230469
1760.225342	26604.130859
1762.552490	26959.474609
1764.878296	26653.050781
1767.202759	26796.853516
1769.525879	26699.708984
1771.847534	26560.396484
1774.167847	26911.093750
1776.486816	26531.216797
1778.804443	26595.259766
1781.120728	26906.486328
1783.435547	26936.146484
1785.749146	26984.152344
1788.061401	26762.933594
1790.372314	26675.546875
1792.681885	26540.373047
1794.990234	26656.253906
1797.297119	26511.042969
1799.602783	26403.554688
1801.907227	26385.931641
1804.210205	26729.705078
1806.511963	26562.240234
1808.812500	25685.976562
1811.111694	26374.439453
1813.409546	26153.001953
1815.706299	26166.380859
1818.001587	26276.648438
1820.295776	25593.644531
1822.588623	25779.917969
1824.880249	25967.425781
